# OpenSignals Text File Format. Version 1
# {"0C:43:14:24:73:5D": {"position": 0, "device": "bitalino_rev", "device name": "BIOSIGNALSPLUS", "device connection": "BTH0C:43:14:24:73:5D", "sampling rate": 1000, "resolution": [4, 1, 1, 1, 1, 10], "firmware version": 1282, "comments": "", "keywords": "", "mode": 0, "sync interval": 2, "date": "2023-11-8", "time": "6:44:25.580", "channels": [1], "sensor": ["EMGBITREV"], "label": ["EMG"], "column": ["nSeq", "I1", "I2", "O1", "O2", "EMG"], "special": [{}], "digital IO": [0, 0, 1, 1], "convertedValues": 1}}
# EndOfHeader
0.0	0.0	0.0	0.0	0.0	0.013	
1.0	0.0	0.0	0.0	0.0	0.0	
2.0	0.0	0.0	0.0	0.0	0.003	
3.0	0.0	0.0	0.0	0.0	0.003	
4.0	0.0	0.0	0.0	0.0	0.019	
5.0	0.0	0.0	0.0	0.0	0.026	
6.0	0.0	0.0	0.0	0.0	0.01	
7.0	0.0	0.0	0.0	0.0	0.0	
8.0	0.0	0.0	0.0	0.0	0.006	
9.0	0.0	0.0	0.0	0.0	0.0	
10.0	0.0	0.0	0.0	0.0	0.003	
11.0	0.0	0.0	0.0	0.0	-0.003	
12.0	0.0	0.0	0.0	0.0	0.003	
13.0	0.0	0.0	0.0	0.0	0.0	
14.0	0.0	0.0	0.0	0.0	0.019	
15.0	0.0	0.0	0.0	0.0	0.013	
0.0	0.0	0.0	0.0	0.0	0.01	
1.0	0.0	0.0	0.0	0.0	0.003	
2.0	0.0	0.0	0.0	0.0	0.0	
3.0	0.0	0.0	0.0	0.0	-0.003	
4.0	0.0	0.0	0.0	0.0	0.003	
5.0	0.0	0.0	0.0	0.0	0.003	
6.0	0.0	0.0	0.0	0.0	0.003	
7.0	0.0	0.0	0.0	0.0	0.0	
8.0	0.0	0.0	0.0	0.0	0.0	
9.0	0.0	0.0	0.0	0.0	0.01	
10.0	0.0	0.0	0.0	0.0	0.01	
11.0	0.0	0.0	0.0	0.0	0.019	
12.0	0.0	0.0	0.0	0.0	0.013	
13.0	0.0	0.0	0.0	0.0	0.019	
14.0	0.0	0.0	0.0	0.0	0.006	
15.0	0.0	0.0	0.0	0.0	0.0	
0.0	0.0	0.0	0.0	0.0	-0.003	
1.0	0.0	0.0	0.0	0.0	-0.003	
2.0	0.0	0.0	0.0	0.0	-0.003	
3.0	0.0	0.0	0.0	0.0	-0.003	
4.0	0.0	0.0	0.0	0.0	-0.003	
5.0	0.0	0.0	0.0	0.0	0.003	
6.0	0.0	0.0	0.0	0.0	-0.003	
7.0	0.0	0.0	0.0	0.0	-0.003	
8.0	0.0	0.0	0.0	0.0	0.0	
9.0	0.0	0.0	0.0	0.0	0.003	
10.0	0.0	0.0	0.0	0.0	0.0	
11.0	0.0	0.0	0.0	0.0	0.0	
12.0	0.0	0.0	0.0	0.0	0.01	
13.0	0.0	0.0	0.0	0.0	0.013	
14.0	0.0	0.0	0.0	0.0	0.022	
15.0	0.0	0.0	0.0	0.0	0.003	
0.0	0.0	0.0	0.0	0.0	-0.006	
1.0	0.0	0.0	0.0	0.0	-0.01	
2.0	0.0	0.0	0.0	0.0	-0.013	
3.0	0.0	0.0	0.0	0.0	0.0	
4.0	0.0	0.0	0.0	0.0	-0.003	
5.0	0.0	0.0	0.0	0.0	0.0	
6.0	0.0	0.0	0.0	0.0	0.016	
7.0	0.0	0.0	0.0	0.0	0.029	
8.0	0.0	0.0	0.0	0.0	0.022	
9.0	0.0	0.0	0.0	0.0	0.022	
10.0	0.0	0.0	0.0	0.0	0.01	
11.0	0.0	0.0	0.0	0.0	0.006	
12.0	0.0	0.0	0.0	0.0	0.01	
13.0	0.0	0.0	0.0	0.0	-0.003	
14.0	0.0	0.0	0.0	0.0	0.003	
15.0	0.0	0.0	0.0	0.0	-0.003	
0.0	0.0	0.0	0.0	0.0	-0.019	
1.0	0.0	0.0	0.0	0.0	-0.013	
2.0	0.0	0.0	0.0	0.0	-0.019	
3.0	0.0	0.0	0.0	0.0	-0.016	
4.0	0.0	0.0	0.0	0.0	-0.006	
5.0	0.0	0.0	0.0	0.0	0.01	
6.0	0.0	0.0	0.0	0.0	0.019	
7.0	0.0	0.0	0.0	0.0	0.016	
8.0	0.0	0.0	0.0	0.0	0.026	
9.0	0.0	0.0	0.0	0.0	0.029	
10.0	0.0	0.0	0.0	0.0	0.022	
11.0	0.0	0.0	0.0	0.0	0.026	
12.0	0.0	0.0	0.0	0.0	0.019	
13.0	0.0	0.0	0.0	0.0	-0.003	
14.0	0.0	0.0	0.0	0.0	-0.013	
15.0	0.0	0.0	0.0	0.0	-0.019	
0.0	0.0	0.0	0.0	0.0	-0.029	
1.0	0.0	0.0	0.0	0.0	-0.022	
2.0	0.0	0.0	0.0	0.0	-0.016	
3.0	0.0	0.0	0.0	0.0	-0.013	
4.0	0.0	0.0	0.0	0.0	0.0	
5.0	0.0	0.0	0.0	0.0	0.003	
6.0	0.0	0.0	0.0	0.0	0.013	
7.0	0.0	0.0	0.0	0.0	0.016	
8.0	0.0	0.0	0.0	0.0	0.029	
9.0	0.0	0.0	0.0	0.0	0.026	
10.0	0.0	0.0	0.0	0.0	0.026	
11.0	0.0	0.0	0.0	0.0	0.003	
12.0	0.0	0.0	0.0	0.0	-0.003	
13.0	0.0	0.0	0.0	0.0	0.013	
14.0	0.0	0.0	0.0	0.0	0.01	
15.0	0.0	0.0	0.0	0.0	0.003	
0.0	0.0	0.0	0.0	0.0	-0.006	
1.0	0.0	0.0	0.0	0.0	0.006	
2.0	0.0	0.0	0.0	0.0	0.006	
3.0	0.0	0.0	0.0	0.0	0.006	
4.0	0.0	0.0	0.0	0.0	0.01	
5.0	0.0	0.0	0.0	0.0	0.019	
6.0	0.0	0.0	0.0	0.0	0.013	
7.0	0.0	0.0	0.0	0.0	-0.006	
8.0	0.0	0.0	0.0	0.0	0.003	
9.0	0.0	0.0	0.0	0.0	0.006	
10.0	0.0	0.0	0.0	0.0	0.0	
11.0	0.0	0.0	0.0	0.0	-0.006	
12.0	0.0	0.0	0.0	0.0	-0.003	
13.0	0.0	0.0	0.0	0.0	-0.01	
14.0	0.0	0.0	0.0	0.0	-0.003	
15.0	0.0	0.0	0.0	0.0	-0.006	
0.0	0.0	0.0	0.0	0.0	-0.022	
1.0	0.0	0.0	0.0	0.0	-0.016	
2.0	0.0	0.0	0.0	0.0	-0.01	
3.0	0.0	0.0	0.0	0.0	-0.013	
4.0	0.0	0.0	0.0	0.0	-0.013	
5.0	0.0	0.0	0.0	0.0	-0.022	
6.0	0.0	0.0	0.0	0.0	-0.003	
7.0	0.0	0.0	0.0	0.0	0.003	
8.0	0.0	0.0	0.0	0.0	0.006	
9.0	0.0	0.0	0.0	0.0	0.022	
10.0	0.0	0.0	0.0	0.0	0.038	
11.0	0.0	0.0	0.0	0.0	0.038	
12.0	0.0	0.0	0.0	0.0	0.051	
13.0	0.0	0.0	0.0	0.0	0.042	
14.0	0.0	0.0	0.0	0.0	0.026	
15.0	0.0	0.0	0.0	0.0	0.016	
0.0	0.0	0.0	0.0	0.0	0.006	
1.0	0.0	0.0	0.0	0.0	0.016	
2.0	0.0	0.0	0.0	0.0	0.01	
3.0	0.0	0.0	0.0	0.0	-0.006	
4.0	0.0	0.0	0.0	0.0	0.003	
5.0	0.0	0.0	0.0	0.0	-0.006	
6.0	0.0	0.0	0.0	0.0	0.0	
7.0	0.0	0.0	0.0	0.0	0.0	
8.0	0.0	0.0	0.0	0.0	0.003	
9.0	0.0	0.0	0.0	0.0	0.003	
10.0	0.0	0.0	0.0	0.0	-0.003	
11.0	0.0	0.0	0.0	0.0	-0.003	
12.0	0.0	0.0	0.0	0.0	0.006	
13.0	0.0	0.0	0.0	0.0	0.0	
14.0	0.0	0.0	0.0	0.0	0.003	
15.0	0.0	0.0	0.0	0.0	0.003	
0.0	0.0	0.0	0.0	0.0	0.013	
1.0	0.0	0.0	0.0	0.0	-0.006	
2.0	0.0	0.0	0.0	0.0	-0.01	
3.0	0.0	0.0	0.0	0.0	-0.006	
4.0	0.0	0.0	0.0	0.0	-0.01	
5.0	0.0	0.0	0.0	0.0	-0.01	
6.0	0.0	0.0	0.0	0.0	-0.006	
7.0	0.0	0.0	0.0	0.0	-0.006	
8.0	0.0	0.0	0.0	0.0	-0.006	
9.0	0.0	0.0	0.0	0.0	-0.003	
10.0	0.0	0.0	0.0	0.0	0.003	
11.0	0.0	0.0	0.0	0.0	-0.003	
12.0	0.0	0.0	0.0	0.0	0.003	
13.0	0.0	0.0	0.0	0.0	0.003	
14.0	0.0	0.0	0.0	0.0	0.013	
15.0	0.0	0.0	0.0	0.0	0.013	
0.0	0.0	0.0	0.0	0.0	0.016	
1.0	0.0	0.0	0.0	0.0	0.022	
2.0	0.0	0.0	0.0	0.0	0.022	
3.0	0.0	0.0	0.0	0.0	0.029	
4.0	0.0	0.0	0.0	0.0	0.01	
5.0	0.0	0.0	0.0	0.0	0.003	
6.0	0.0	0.0	0.0	0.0	-0.006	
7.0	0.0	0.0	0.0	0.0	-0.006	
8.0	0.0	0.0	0.0	0.0	-0.01	
9.0	0.0	0.0	0.0	0.0	0.0	
10.0	0.0	0.0	0.0	0.0	-0.006	
11.0	0.0	0.0	0.0	0.0	-0.003	
12.0	0.0	0.0	0.0	0.0	-0.01	
13.0	0.0	0.0	0.0	0.0	0.003	
14.0	0.0	0.0	0.0	0.0	0.013	
15.0	0.0	0.0	0.0	0.0	0.013	
0.0	0.0	0.0	0.0	0.0	0.013	
1.0	0.0	0.0	0.0	0.0	0.013	
2.0	0.0	0.0	0.0	0.0	0.013	
3.0	0.0	0.0	0.0	0.0	0.022	
4.0	0.0	0.0	0.0	0.0	0.032	
5.0	0.0	0.0	0.0	0.0	0.022	
6.0	0.0	0.0	0.0	0.0	0.022	
7.0	0.0	0.0	0.0	0.0	0.022	
8.0	0.0	0.0	0.0	0.0	0.013	
9.0	0.0	0.0	0.0	0.0	-0.01	
10.0	0.0	0.0	0.0	0.0	-0.019	
11.0	0.0	0.0	0.0	0.0	-0.006	
12.0	0.0	0.0	0.0	0.0	0.01	
13.0	0.0	0.0	0.0	0.0	0.003	
14.0	0.0	0.0	0.0	0.0	-0.006	
15.0	0.0	0.0	0.0	0.0	-0.006	
0.0	0.0	0.0	0.0	0.0	-0.026	
1.0	0.0	0.0	0.0	0.0	-0.016	
2.0	0.0	0.0	0.0	0.0	-0.006	
3.0	0.0	0.0	0.0	0.0	-0.006	
4.0	0.0	0.0	0.0	0.0	-0.006	
5.0	0.0	0.0	0.0	0.0	-0.01	
6.0	0.0	0.0	0.0	0.0	0.006	
7.0	0.0	0.0	0.0	0.0	0.013	
8.0	0.0	0.0	0.0	0.0	0.016	
9.0	0.0	0.0	0.0	0.0	0.019	
10.0	0.0	0.0	0.0	0.0	0.026	
11.0	0.0	0.0	0.0	0.0	0.01	
12.0	0.0	0.0	0.0	0.0	0.01	
13.0	0.0	0.0	0.0	0.0	-0.003	
14.0	0.0	0.0	0.0	0.0	0.013	
15.0	0.0	0.0	0.0	0.0	0.01	
0.0	0.0	0.0	0.0	0.0	0.019	
1.0	0.0	0.0	0.0	0.0	0.003	
2.0	0.0	0.0	0.0	0.0	-0.003	
3.0	0.0	0.0	0.0	0.0	-0.013	
4.0	0.0	0.0	0.0	0.0	0.0	
5.0	0.0	0.0	0.0	0.0	-0.006	
6.0	0.0	0.0	0.0	0.0	0.0	
7.0	0.0	0.0	0.0	0.0	0.0	
8.0	0.0	0.0	0.0	0.0	0.006	
9.0	0.0	0.0	0.0	0.0	0.0	
10.0	0.0	0.0	0.0	0.0	0.026	
11.0	0.0	0.0	0.0	0.0	0.016	
12.0	0.0	0.0	0.0	0.0	0.003	
13.0	0.0	0.0	0.0	0.0	0.013	
14.0	0.0	0.0	0.0	0.0	0.013	
15.0	0.0	0.0	0.0	0.0	0.01	
0.0	0.0	0.0	0.0	0.0	-0.003	
1.0	0.0	0.0	0.0	0.0	-0.006	
2.0	0.0	0.0	0.0	0.0	-0.003	
3.0	0.0	0.0	0.0	0.0	0.0	
4.0	0.0	0.0	0.0	0.0	0.0	
5.0	0.0	0.0	0.0	0.0	-0.013	
6.0	0.0	0.0	0.0	0.0	-0.01	
7.0	0.0	0.0	0.0	0.0	-0.006	
8.0	0.0	0.0	0.0	0.0	-0.003	
9.0	0.0	0.0	0.0	0.0	-0.01	
10.0	0.0	0.0	0.0	0.0	0.006	
11.0	0.0	0.0	0.0	0.0	-0.006	
12.0	0.0	0.0	0.0	0.0	-0.003	
13.0	0.0	0.0	0.0	0.0	0.0	
14.0	0.0	0.0	0.0	0.0	-0.013	
15.0	0.0	0.0	0.0	0.0	-0.01	
0.0	0.0	0.0	0.0	0.0	-0.006	
1.0	0.0	0.0	0.0	0.0	-0.003	
2.0	0.0	0.0	0.0	0.0	0.006	
3.0	0.0	0.0	0.0	0.0	0.01	
4.0	0.0	0.0	0.0	0.0	0.006	
5.0	0.0	0.0	0.0	0.0	0.01	
6.0	0.0	0.0	0.0	0.0	0.016	
7.0	0.0	0.0	0.0	0.0	0.016	
8.0	0.0	0.0	0.0	0.0	0.019	
9.0	0.0	0.0	0.0	0.0	0.026	
10.0	0.0	0.0	0.0	0.0	0.029	
11.0	0.0	0.0	0.0	0.0	0.013	
12.0	0.0	0.0	0.0	0.0	0.016	
13.0	0.0	0.0	0.0	0.0	0.029	
14.0	0.0	0.0	0.0	0.0	0.019	
15.0	0.0	0.0	0.0	0.0	0.006	
0.0	0.0	0.0	0.0	0.0	0.003	
1.0	0.0	0.0	0.0	0.0	-0.003	
2.0	0.0	0.0	0.0	0.0	-0.013	
3.0	0.0	0.0	0.0	0.0	-0.006	
4.0	0.0	0.0	0.0	0.0	0.0	
5.0	0.0	0.0	0.0	0.0	0.0	
6.0	0.0	0.0	0.0	0.0	0.003	
7.0	0.0	0.0	0.0	0.0	0.006	
8.0	0.0	0.0	0.0	0.0	0.006	
9.0	0.0	0.0	0.0	0.0	0.01	
10.0	0.0	0.0	0.0	0.0	0.0	
11.0	0.0	0.0	0.0	0.0	-0.006	
12.0	0.0	0.0	0.0	0.0	-0.01	
13.0	0.0	0.0	0.0	0.0	-0.013	
14.0	0.0	0.0	0.0	0.0	-0.01	
15.0	0.0	0.0	0.0	0.0	-0.016	
0.0	0.0	0.0	0.0	0.0	-0.01	
1.0	0.0	0.0	0.0	0.0	0.0	
2.0	0.0	0.0	0.0	0.0	0.006	
3.0	0.0	0.0	0.0	0.0	0.0	
4.0	0.0	0.0	0.0	0.0	0.003	
5.0	0.0	0.0	0.0	0.0	-0.006	
6.0	0.0	0.0	0.0	0.0	0.01	
7.0	0.0	0.0	0.0	0.0	0.016	
8.0	0.0	0.0	0.0	0.0	0.019	
9.0	0.0	0.0	0.0	0.0	0.013	
10.0	0.0	0.0	0.0	0.0	0.013	
11.0	0.0	0.0	0.0	0.0	0.006	
12.0	0.0	0.0	0.0	0.0	0.016	
13.0	0.0	0.0	0.0	0.0	0.006	
14.0	0.0	0.0	0.0	0.0	0.006	
15.0	0.0	0.0	0.0	0.0	0.01	
0.0	0.0	0.0	0.0	0.0	0.013	
1.0	0.0	0.0	0.0	0.0	0.0	
2.0	0.0	0.0	0.0	0.0	-0.003	
3.0	0.0	0.0	0.0	0.0	0.003	
4.0	0.0	0.0	0.0	0.0	0.0	
5.0	0.0	0.0	0.0	0.0	-0.003	
6.0	0.0	0.0	0.0	0.0	-0.003	
7.0	0.0	0.0	0.0	0.0	0.003	
8.0	0.0	0.0	0.0	0.0	0.013	
9.0	0.0	0.0	0.0	0.0	0.003	
10.0	0.0	0.0	0.0	0.0	0.003	
11.0	0.0	0.0	0.0	0.0	0.006	
12.0	0.0	0.0	0.0	0.0	0.016	
13.0	0.0	0.0	0.0	0.0	0.016	
14.0	0.0	0.0	0.0	0.0	0.019	
15.0	0.0	0.0	0.0	0.0	0.006	
0.0	0.0	0.0	0.0	0.0	0.003	
1.0	0.0	0.0	0.0	0.0	-0.003	
2.0	0.0	0.0	0.0	0.0	-0.006	
3.0	0.0	0.0	0.0	0.0	-0.01	
4.0	0.0	0.0	0.0	0.0	-0.01	
5.0	0.0	0.0	0.0	0.0	-0.016	
6.0	0.0	0.0	0.0	0.0	-0.006	
7.0	0.0	0.0	0.0	0.0	-0.013	
8.0	0.0	0.0	0.0	0.0	-0.006	
9.0	0.0	0.0	0.0	0.0	0.0	
10.0	0.0	0.0	0.0	0.0	-0.003	
11.0	0.0	0.0	0.0	0.0	0.013	
12.0	0.0	0.0	0.0	0.0	0.013	
13.0	0.0	0.0	0.0	0.0	0.01	
14.0	0.0	0.0	0.0	0.0	0.01	
15.0	0.0	0.0	0.0	0.0	0.013	
0.0	0.0	0.0	0.0	0.0	0.026	
1.0	0.0	0.0	0.0	0.0	0.038	
2.0	0.0	0.0	0.0	0.0	0.019	
3.0	0.0	0.0	0.0	0.0	0.016	
4.0	0.0	0.0	0.0	0.0	0.006	
5.0	0.0	0.0	0.0	0.0	0.0	
6.0	0.0	0.0	0.0	0.0	-0.003	
7.0	0.0	0.0	0.0	0.0	-0.006	
8.0	0.0	0.0	0.0	0.0	-0.01	
9.0	0.0	0.0	0.0	0.0	-0.01	
10.0	0.0	0.0	0.0	0.0	0.0	
11.0	0.0	0.0	0.0	0.0	0.006	
12.0	0.0	0.0	0.0	0.0	0.003	
13.0	0.0	0.0	0.0	0.0	0.003	
14.0	0.0	0.0	0.0	0.0	-0.003	
15.0	0.0	0.0	0.0	0.0	0.01	
0.0	0.0	0.0	0.0	0.0	0.0	
1.0	0.0	0.0	0.0	0.0	0.0	
2.0	0.0	0.0	0.0	0.0	0.003	
3.0	0.0	0.0	0.0	0.0	0.006	
4.0	0.0	0.0	0.0	0.0	0.0	
5.0	0.0	0.0	0.0	0.0	-0.003	
6.0	0.0	0.0	0.0	0.0	-0.006	
7.0	0.0	0.0	0.0	0.0	0.006	
8.0	0.0	0.0	0.0	0.0	-0.003	
9.0	0.0	0.0	0.0	0.0	0.0	
10.0	0.0	0.0	0.0	0.0	-0.01	
11.0	0.0	0.0	0.0	0.0	-0.006	
12.0	0.0	0.0	0.0	0.0	-0.006	
13.0	0.0	0.0	0.0	0.0	0.0	
14.0	0.0	0.0	0.0	0.0	0.016	
15.0	0.0	0.0	0.0	0.0	0.006	
0.0	0.0	0.0	0.0	0.0	0.006	
1.0	0.0	0.0	0.0	0.0	0.006	
2.0	0.0	0.0	0.0	0.0	0.0	
3.0	0.0	0.0	0.0	0.0	0.0	
4.0	0.0	0.0	0.0	0.0	-0.003	
5.0	0.0	0.0	0.0	0.0	-0.003	
6.0	0.0	0.0	0.0	0.0	0.006	
7.0	0.0	0.0	0.0	0.0	0.022	
8.0	0.0	0.0	0.0	0.0	0.029	
9.0	0.0	0.0	0.0	0.0	0.022	
10.0	0.0	0.0	0.0	0.0	0.006	
11.0	0.0	0.0	0.0	0.0	0.006	
12.0	0.0	0.0	0.0	0.0	0.016	
13.0	0.0	0.0	0.0	0.0	0.016	
14.0	0.0	0.0	0.0	0.0	0.019	
15.0	0.0	0.0	0.0	0.0	0.006	
0.0	0.0	0.0	0.0	0.0	0.003	
1.0	0.0	0.0	0.0	0.0	-0.006	
2.0	0.0	0.0	0.0	0.0	-0.019	
3.0	0.0	0.0	0.0	0.0	-0.013	
4.0	0.0	0.0	0.0	0.0	-0.013	
5.0	0.0	0.0	0.0	0.0	-0.013	
6.0	0.0	0.0	0.0	0.0	-0.013	
7.0	0.0	0.0	0.0	0.0	-0.01	
8.0	0.0	0.0	0.0	0.0	0.0	
9.0	0.0	0.0	0.0	0.0	0.006	
10.0	0.0	0.0	0.0	0.0	0.01	
11.0	0.0	0.0	0.0	0.0	0.022	
12.0	0.0	0.0	0.0	0.0	0.035	
13.0	0.0	0.0	0.0	0.0	0.022	
14.0	0.0	0.0	0.0	0.0	0.013	
15.0	0.0	0.0	0.0	0.0	0.01	
0.0	0.0	0.0	0.0	0.0	0.016	
1.0	0.0	0.0	0.0	0.0	0.019	
2.0	0.0	0.0	0.0	0.0	0.013	
3.0	0.0	0.0	0.0	0.0	0.0	
4.0	0.0	0.0	0.0	0.0	-0.003	
5.0	0.0	0.0	0.0	0.0	-0.003	
6.0	0.0	0.0	0.0	0.0	-0.006	
7.0	0.0	0.0	0.0	0.0	-0.019	
8.0	0.0	0.0	0.0	0.0	-0.026	
9.0	0.0	0.0	0.0	0.0	-0.022	
10.0	0.0	0.0	0.0	0.0	-0.006	
11.0	0.0	0.0	0.0	0.0	-0.01	
12.0	0.0	0.0	0.0	0.0	-0.006	
13.0	0.0	0.0	0.0	0.0	0.0	
14.0	0.0	0.0	0.0	0.0	0.006	
15.0	0.0	0.0	0.0	0.0	0.019	
0.0	0.0	0.0	0.0	0.0	0.019	
1.0	0.0	0.0	0.0	0.0	0.013	
2.0	0.0	0.0	0.0	0.0	0.01	
3.0	0.0	0.0	0.0	0.0	0.016	
4.0	0.0	0.0	0.0	0.0	0.022	
5.0	0.0	0.0	0.0	0.0	0.016	
6.0	0.0	0.0	0.0	0.0	0.013	
7.0	0.0	0.0	0.0	0.0	0.022	
8.0	0.0	0.0	0.0	0.0	0.022	
9.0	0.0	0.0	0.0	0.0	-0.003	
10.0	0.0	0.0	0.0	0.0	0.01	
11.0	0.0	0.0	0.0	0.0	-0.006	
12.0	0.0	0.0	0.0	0.0	-0.013	
13.0	0.0	0.0	0.0	0.0	-0.013	
14.0	0.0	0.0	0.0	0.0	-0.016	
15.0	0.0	0.0	0.0	0.0	-0.006	
0.0	0.0	0.0	0.0	0.0	-0.003	
1.0	0.0	0.0	0.0	0.0	0.0	
2.0	0.0	0.0	0.0	0.0	0.013	
3.0	0.0	0.0	0.0	0.0	0.006	
4.0	0.0	0.0	0.0	0.0	0.01	
5.0	0.0	0.0	0.0	0.0	0.01	
6.0	0.0	0.0	0.0	0.0	0.01	
7.0	0.0	0.0	0.0	0.0	0.01	
8.0	0.0	0.0	0.0	0.0	0.016	
9.0	0.0	0.0	0.0	0.0	0.01	
10.0	0.0	0.0	0.0	0.0	0.003	
11.0	0.0	0.0	0.0	0.0	0.0	
12.0	0.0	0.0	0.0	0.0	-0.006	
13.0	0.0	0.0	0.0	0.0	-0.013	
14.0	0.0	0.0	0.0	0.0	-0.003	
15.0	0.0	0.0	0.0	0.0	-0.006	
0.0	0.0	0.0	0.0	0.0	-0.006	
1.0	0.0	0.0	0.0	0.0	0.0	
2.0	0.0	0.0	0.0	0.0	0.003	
3.0	0.0	0.0	0.0	0.0	-0.006	
4.0	0.0	0.0	0.0	0.0	-0.006	
5.0	0.0	0.0	0.0	0.0	-0.013	
6.0	0.0	0.0	0.0	0.0	-0.006	
7.0	0.0	0.0	0.0	0.0	-0.003	
8.0	0.0	0.0	0.0	0.0	0.006	
9.0	0.0	0.0	0.0	0.0	0.0	
10.0	0.0	0.0	0.0	0.0	-0.003	
11.0	0.0	0.0	0.0	0.0	0.01	
12.0	0.0	0.0	0.0	0.0	0.019	
13.0	0.0	0.0	0.0	0.0	0.026	
14.0	0.0	0.0	0.0	0.0	0.01	
15.0	0.0	0.0	0.0	0.0	0.006	
0.0	0.0	0.0	0.0	0.0	0.01	
1.0	0.0	0.0	0.0	0.0	0.006	
2.0	0.0	0.0	0.0	0.0	0.01	
3.0	0.0	0.0	0.0	0.0	0.006	
4.0	0.0	0.0	0.0	0.0	0.003	
5.0	0.0	0.0	0.0	0.0	0.003	
6.0	0.0	0.0	0.0	0.0	0.006	
7.0	0.0	0.0	0.0	0.0	0.006	
8.0	0.0	0.0	0.0	0.0	0.013	
9.0	0.0	0.0	0.0	0.0	0.006	
10.0	0.0	0.0	0.0	0.0	0.006	
11.0	0.0	0.0	0.0	0.0	-0.01	
12.0	0.0	0.0	0.0	0.0	-0.01	
13.0	0.0	0.0	0.0	0.0	-0.01	
14.0	0.0	0.0	0.0	0.0	0.0	
15.0	0.0	0.0	0.0	0.0	0.01	
0.0	0.0	0.0	0.0	0.0	0.019	
1.0	0.0	0.0	0.0	0.0	0.013	
2.0	0.0	0.0	0.0	0.0	0.01	
3.0	0.0	0.0	0.0	0.0	0.013	
4.0	0.0	0.0	0.0	0.0	0.016	
5.0	0.0	0.0	0.0	0.0	0.013	
6.0	0.0	0.0	0.0	0.0	-0.006	
7.0	0.0	0.0	0.0	0.0	-0.016	
8.0	0.0	0.0	0.0	0.0	-0.01	
9.0	0.0	0.0	0.0	0.0	-0.006	
10.0	0.0	0.0	0.0	0.0	-0.006	
11.0	0.0	0.0	0.0	0.0	-0.003	
12.0	0.0	0.0	0.0	0.0	-0.006	
13.0	0.0	0.0	0.0	0.0	0.0	
14.0	0.0	0.0	0.0	0.0	-0.003	
15.0	0.0	0.0	0.0	0.0	0.003	
0.0	0.0	0.0	0.0	0.0	0.026	
1.0	0.0	0.0	0.0	0.0	0.038	
2.0	0.0	0.0	0.0	0.0	0.029	
3.0	0.0	0.0	0.0	0.0	0.029	
4.0	0.0	0.0	0.0	0.0	0.022	
5.0	0.0	0.0	0.0	0.0	0.016	
6.0	0.0	0.0	0.0	0.0	0.006	
7.0	0.0	0.0	0.0	0.0	0.006	
8.0	0.0	0.0	0.0	0.0	0.0	
9.0	0.0	0.0	0.0	0.0	-0.01	
10.0	0.0	0.0	0.0	0.0	-0.013	
11.0	0.0	0.0	0.0	0.0	-0.016	
12.0	0.0	0.0	0.0	0.0	-0.003	
13.0	0.0	0.0	0.0	0.0	-0.003	
14.0	0.0	0.0	0.0	0.0	0.0	
15.0	0.0	0.0	0.0	0.0	-0.003	
0.0	0.0	0.0	0.0	0.0	0.003	
1.0	0.0	0.0	0.0	0.0	0.0	
2.0	0.0	0.0	0.0	0.0	0.016	
3.0	0.0	0.0	0.0	0.0	0.019	
4.0	0.0	0.0	0.0	0.0	0.01	
5.0	0.0	0.0	0.0	0.0	0.01	
6.0	0.0	0.0	0.0	0.0	0.013	
7.0	0.0	0.0	0.0	0.0	0.01	
8.0	0.0	0.0	0.0	0.0	0.01	
9.0	0.0	0.0	0.0	0.0	0.013	
10.0	0.0	0.0	0.0	0.0	0.01	
11.0	0.0	0.0	0.0	0.0	0.01	
12.0	0.0	0.0	0.0	0.0	0.006	
13.0	0.0	0.0	0.0	0.0	-0.006	
14.0	0.0	0.0	0.0	0.0	-0.003	
15.0	0.0	0.0	0.0	0.0	-0.013	
0.0	0.0	0.0	0.0	0.0	-0.006	
1.0	0.0	0.0	0.0	0.0	-0.016	
2.0	0.0	0.0	0.0	0.0	-0.013	
3.0	0.0	0.0	0.0	0.0	0.003	
4.0	0.0	0.0	0.0	0.0	0.013	
5.0	0.0	0.0	0.0	0.0	0.01	
6.0	0.0	0.0	0.0	0.0	0.006	
7.0	0.0	0.0	0.0	0.0	0.013	
8.0	0.0	0.0	0.0	0.0	0.016	
9.0	0.0	0.0	0.0	0.0	0.006	
10.0	0.0	0.0	0.0	0.0	0.003	
11.0	0.0	0.0	0.0	0.0	-0.013	
12.0	0.0	0.0	0.0	0.0	0.006	
13.0	0.0	0.0	0.0	0.0	0.003	
14.0	0.0	0.0	0.0	0.0	-0.003	
15.0	0.0	0.0	0.0	0.0	-0.003	
0.0	0.0	0.0	0.0	0.0	0.006	
1.0	0.0	0.0	0.0	0.0	0.026	
2.0	0.0	0.0	0.0	0.0	0.013	
3.0	0.0	0.0	0.0	0.0	0.003	
4.0	0.0	0.0	0.0	0.0	0.01	
5.0	0.0	0.0	0.0	0.0	0.01	
6.0	0.0	0.0	0.0	0.0	0.003	
7.0	0.0	0.0	0.0	0.0	0.003	
8.0	0.0	0.0	0.0	0.0	0.0	
9.0	0.0	0.0	0.0	0.0	0.0	
10.0	0.0	0.0	0.0	0.0	-0.003	
11.0	0.0	0.0	0.0	0.0	-0.003	
12.0	0.0	0.0	0.0	0.0	-0.006	
13.0	0.0	0.0	0.0	0.0	-0.013	
14.0	0.0	0.0	0.0	0.0	-0.006	
15.0	0.0	0.0	0.0	0.0	-0.013	
0.0	0.0	0.0	0.0	0.0	0.003	
1.0	0.0	0.0	0.0	0.0	0.016	
2.0	0.0	0.0	0.0	0.0	0.022	
3.0	0.0	0.0	0.0	0.0	0.038	
4.0	0.0	0.0	0.0	0.0	0.038	
5.0	0.0	0.0	0.0	0.0	0.016	
6.0	0.0	0.0	0.0	0.0	0.022	
7.0	0.0	0.0	0.0	0.0	0.022	
8.0	0.0	0.0	0.0	0.0	0.003	
9.0	0.0	0.0	0.0	0.0	-0.003	
10.0	0.0	0.0	0.0	0.0	-0.006	
11.0	0.0	0.0	0.0	0.0	-0.006	
12.0	0.0	0.0	0.0	0.0	-0.01	
13.0	0.0	0.0	0.0	0.0	-0.013	
14.0	0.0	0.0	0.0	0.0	-0.01	
15.0	0.0	0.0	0.0	0.0	-0.01	
0.0	0.0	0.0	0.0	0.0	0.0	
1.0	0.0	0.0	0.0	0.0	0.003	
2.0	0.0	0.0	0.0	0.0	0.013	
3.0	0.0	0.0	0.0	0.0	0.0	
4.0	0.0	0.0	0.0	0.0	-0.003	
5.0	0.0	0.0	0.0	0.0	-0.003	
6.0	0.0	0.0	0.0	0.0	-0.01	
7.0	0.0	0.0	0.0	0.0	-0.006	
8.0	0.0	0.0	0.0	0.0	-0.01	
9.0	0.0	0.0	0.0	0.0	0.0	
10.0	0.0	0.0	0.0	0.0	0.006	
11.0	0.0	0.0	0.0	0.0	0.006	
12.0	0.0	0.0	0.0	0.0	0.003	
13.0	0.0	0.0	0.0	0.0	0.0	
14.0	0.0	0.0	0.0	0.0	0.006	
15.0	0.0	0.0	0.0	0.0	0.013	
0.0	0.0	0.0	0.0	0.0	0.003	
1.0	0.0	0.0	0.0	0.0	0.0	
2.0	0.0	0.0	0.0	0.0	0.0	
3.0	0.0	0.0	0.0	0.0	0.019	
4.0	0.0	0.0	0.0	0.0	0.006	
5.0	0.0	0.0	0.0	0.0	0.006	
6.0	0.0	0.0	0.0	0.0	0.01	
7.0	0.0	0.0	0.0	0.0	0.01	
8.0	0.0	0.0	0.0	0.0	0.01	
9.0	0.0	0.0	0.0	0.0	0.0	
10.0	0.0	0.0	0.0	0.0	-0.003	
11.0	0.0	0.0	0.0	0.0	0.0	
12.0	0.0	0.0	0.0	0.0	0.0	
13.0	0.0	0.0	0.0	0.0	-0.01	
14.0	0.0	0.0	0.0	0.0	0.013	
15.0	0.0	0.0	0.0	0.0	0.006	
0.0	0.0	0.0	0.0	0.0	0.0	
1.0	0.0	0.0	0.0	0.0	0.003	
2.0	0.0	0.0	0.0	0.0	0.003	
3.0	0.0	0.0	0.0	0.0	0.006	
4.0	0.0	0.0	0.0	0.0	0.016	
5.0	0.0	0.0	0.0	0.0	0.003	
6.0	0.0	0.0	0.0	0.0	0.006	
7.0	0.0	0.0	0.0	0.0	0.019	
8.0	0.0	0.0	0.0	0.0	0.006	
9.0	0.0	0.0	0.0	0.0	0.0	
10.0	0.0	0.0	0.0	0.0	-0.006	
11.0	0.0	0.0	0.0	0.0	-0.01	
12.0	0.0	0.0	0.0	0.0	0.0	
13.0	0.0	0.0	0.0	0.0	0.003	
14.0	0.0	0.0	0.0	0.0	0.003	
15.0	0.0	0.0	0.0	0.0	0.01	
0.0	0.0	0.0	0.0	0.0	0.006	
1.0	0.0	0.0	0.0	0.0	0.0	
2.0	0.0	0.0	0.0	0.0	0.016	
3.0	0.0	0.0	0.0	0.0	0.022	
4.0	0.0	0.0	0.0	0.0	0.022	
5.0	0.0	0.0	0.0	0.0	0.01	
6.0	0.0	0.0	0.0	0.0	0.003	
7.0	0.0	0.0	0.0	0.0	0.01	
8.0	0.0	0.0	0.0	0.0	0.006	
9.0	0.0	0.0	0.0	0.0	0.016	
10.0	0.0	0.0	0.0	0.0	0.013	
11.0	0.0	0.0	0.0	0.0	0.0	
12.0	0.0	0.0	0.0	0.0	0.0	
13.0	0.0	0.0	0.0	0.0	-0.013	
14.0	0.0	0.0	0.0	0.0	0.003	
15.0	0.0	0.0	0.0	0.0	0.0	
0.0	0.0	0.0	0.0	0.0	0.003	
1.0	0.0	0.0	0.0	0.0	-0.003	
2.0	0.0	0.0	0.0	0.0	-0.003	
3.0	0.0	0.0	0.0	0.0	0.01	
4.0	0.0	0.0	0.0	0.0	0.0	
5.0	0.0	0.0	0.0	0.0	-0.013	
6.0	0.0	0.0	0.0	0.0	-0.01	
7.0	0.0	0.0	0.0	0.0	-0.026	
8.0	0.0	0.0	0.0	0.0	-0.016	
9.0	0.0	0.0	0.0	0.0	-0.01	
10.0	0.0	0.0	0.0	0.0	-0.013	
11.0	0.0	0.0	0.0	0.0	0.003	
12.0	0.0	0.0	0.0	0.0	0.0	
13.0	0.0	0.0	0.0	0.0	0.006	
14.0	0.0	0.0	0.0	0.0	0.013	
15.0	0.0	0.0	0.0	0.0	0.01	
0.0	0.0	0.0	0.0	0.0	0.006	
1.0	0.0	0.0	0.0	0.0	0.01	
2.0	0.0	0.0	0.0	0.0	0.026	
3.0	0.0	0.0	0.0	0.0	0.029	
4.0	0.0	0.0	0.0	0.0	0.035	
5.0	0.0	0.0	0.0	0.0	0.032	
6.0	0.0	0.0	0.0	0.0	0.038	
7.0	0.0	0.0	0.0	0.0	0.019	
8.0	0.0	0.0	0.0	0.0	0.01	
9.0	0.0	0.0	0.0	0.0	-0.013	
10.0	0.0	0.0	0.0	0.0	0.0	
11.0	0.0	0.0	0.0	0.0	-0.013	
12.0	0.0	0.0	0.0	0.0	-0.01	
13.0	0.0	0.0	0.0	0.0	-0.01	
14.0	0.0	0.0	0.0	0.0	-0.016	
15.0	0.0	0.0	0.0	0.0	-0.006	
0.0	0.0	0.0	0.0	0.0	-0.006	
1.0	0.0	0.0	0.0	0.0	-0.006	
2.0	0.0	0.0	0.0	0.0	-0.003	
3.0	0.0	0.0	0.0	0.0	-0.013	
4.0	0.0	0.0	0.0	0.0	0.0	
5.0	0.0	0.0	0.0	0.0	0.01	
6.0	0.0	0.0	0.0	0.0	0.019	
7.0	0.0	0.0	0.0	0.0	0.016	
8.0	0.0	0.0	0.0	0.0	0.01	
9.0	0.0	0.0	0.0	0.0	0.01	
10.0	0.0	0.0	0.0	0.0	-0.003	
11.0	0.0	0.0	0.0	0.0	0.0	
12.0	0.0	0.0	0.0	0.0	0.01	
13.0	0.0	0.0	0.0	0.0	0.019	
14.0	0.0	0.0	0.0	0.0	0.019	
15.0	0.0	0.0	0.0	0.0	-0.003	
0.0	0.0	0.0	0.0	0.0	0.0	
1.0	0.0	0.0	0.0	0.0	0.01	
2.0	0.0	0.0	0.0	0.0	0.022	
3.0	0.0	0.0	0.0	0.0	0.026	
4.0	0.0	0.0	0.0	0.0	0.026	
5.0	0.0	0.0	0.0	0.0	0.0	
6.0	0.0	0.0	0.0	0.0	-0.006	
7.0	0.0	0.0	0.0	0.0	-0.006	
8.0	0.0	0.0	0.0	0.0	0.0	
9.0	0.0	0.0	0.0	0.0	0.0	
10.0	0.0	0.0	0.0	0.0	-0.003	
11.0	0.0	0.0	0.0	0.0	-0.003	
12.0	0.0	0.0	0.0	0.0	-0.003	
13.0	0.0	0.0	0.0	0.0	0.003	
14.0	0.0	0.0	0.0	0.0	0.0	
15.0	0.0	0.0	0.0	0.0	0.003	
0.0	0.0	0.0	0.0	0.0	0.0	
1.0	0.0	0.0	0.0	0.0	-0.003	
2.0	0.0	0.0	0.0	0.0	-0.01	
3.0	0.0	0.0	0.0	0.0	-0.013	
4.0	0.0	0.0	0.0	0.0	0.003	
5.0	0.0	0.0	0.0	0.0	0.013	
6.0	0.0	0.0	0.0	0.0	-0.003	
7.0	0.0	0.0	0.0	0.0	-0.013	
8.0	0.0	0.0	0.0	0.0	-0.019	
9.0	0.0	0.0	0.0	0.0	-0.003	
10.0	0.0	0.0	0.0	0.0	0.003	
11.0	0.0	0.0	0.0	0.0	0.01	
12.0	0.0	0.0	0.0	0.0	0.016	
13.0	0.0	0.0	0.0	0.0	0.022	
14.0	0.0	0.0	0.0	0.0	0.022	
15.0	0.0	0.0	0.0	0.0	0.016	
0.0	0.0	0.0	0.0	0.0	0.013	
1.0	0.0	0.0	0.0	0.0	-0.003	
2.0	0.0	0.0	0.0	0.0	-0.006	
3.0	0.0	0.0	0.0	0.0	0.003	
4.0	0.0	0.0	0.0	0.0	0.013	
5.0	0.0	0.0	0.0	0.0	0.019	
6.0	0.0	0.0	0.0	0.0	0.016	
7.0	0.0	0.0	0.0	0.0	0.022	
8.0	0.0	0.0	0.0	0.0	0.022	
9.0	0.0	0.0	0.0	0.0	-0.003	
10.0	0.0	0.0	0.0	0.0	-0.013	
11.0	0.0	0.0	0.0	0.0	-0.016	
12.0	0.0	0.0	0.0	0.0	-0.022	
13.0	0.0	0.0	0.0	0.0	-0.022	
14.0	0.0	0.0	0.0	0.0	-0.013	
15.0	0.0	0.0	0.0	0.0	-0.003	
0.0	0.0	0.0	0.0	0.0	0.022	
1.0	0.0	0.0	0.0	0.0	0.032	
2.0	0.0	0.0	0.0	0.0	0.019	
3.0	0.0	0.0	0.0	0.0	0.003	
4.0	0.0	0.0	0.0	0.0	-0.01	
5.0	0.0	0.0	0.0	0.0	-0.006	
6.0	0.0	0.0	0.0	0.0	0.003	
7.0	0.0	0.0	0.0	0.0	0.016	
8.0	0.0	0.0	0.0	0.0	0.016	
9.0	0.0	0.0	0.0	0.0	0.006	
10.0	0.0	0.0	0.0	0.0	0.013	
11.0	0.0	0.0	0.0	0.0	0.019	
12.0	0.0	0.0	0.0	0.0	0.013	
13.0	0.0	0.0	0.0	0.0	0.01	
14.0	0.0	0.0	0.0	0.0	0.01	
15.0	0.0	0.0	0.0	0.0	0.0	
0.0	0.0	0.0	0.0	0.0	-0.003	
1.0	0.0	0.0	0.0	0.0	-0.01	
2.0	0.0	0.0	0.0	0.0	-0.016	
3.0	0.0	0.0	0.0	0.0	-0.006	
4.0	0.0	0.0	0.0	0.0	-0.003	
5.0	0.0	0.0	0.0	0.0	-0.003	
6.0	0.0	0.0	0.0	0.0	0.0	
7.0	0.0	0.0	0.0	0.0	-0.006	
8.0	0.0	0.0	0.0	0.0	-0.003	
9.0	0.0	0.0	0.0	0.0	0.003	
10.0	0.0	0.0	0.0	0.0	0.006	
11.0	0.0	0.0	0.0	0.0	0.003	
12.0	0.0	0.0	0.0	0.0	0.013	
13.0	0.0	0.0	0.0	0.0	0.003	
14.0	0.0	0.0	0.0	0.0	0.0	
15.0	0.0	0.0	0.0	0.0	0.0	
0.0	0.0	0.0	0.0	0.0	0.0	
1.0	0.0	0.0	0.0	0.0	0.003	
2.0	0.0	0.0	0.0	0.0	0.01	
3.0	0.0	0.0	0.0	0.0	0.01	
4.0	0.0	0.0	0.0	0.0	0.003	
5.0	0.0	0.0	0.0	0.0	0.003	
6.0	0.0	0.0	0.0	0.0	0.0	
7.0	0.0	0.0	0.0	0.0	0.013	
8.0	0.0	0.0	0.0	0.0	-0.003	
9.0	0.0	0.0	0.0	0.0	0.0	
10.0	0.0	0.0	0.0	0.0	-0.003	
11.0	0.0	0.0	0.0	0.0	0.003	
12.0	0.0	0.0	0.0	0.0	0.006	
13.0	0.0	0.0	0.0	0.0	0.003	
14.0	0.0	0.0	0.0	0.0	-0.006	
15.0	0.0	0.0	0.0	0.0	0.003	
0.0	0.0	0.0	0.0	0.0	0.003	
1.0	0.0	0.0	0.0	0.0	0.0	
2.0	0.0	0.0	0.0	0.0	0.0	
3.0	0.0	0.0	0.0	0.0	0.0	
4.0	0.0	0.0	0.0	0.0	-0.003	
5.0	0.0	0.0	0.0	0.0	-0.016	
6.0	0.0	0.0	0.0	0.0	-0.01	
7.0	0.0	0.0	0.0	0.0	0.003	
8.0	0.0	0.0	0.0	0.0	0.006	
9.0	0.0	0.0	0.0	0.0	0.003	
10.0	0.0	0.0	0.0	0.0	-0.006	
11.0	0.0	0.0	0.0	0.0	0.003	
12.0	0.0	0.0	0.0	0.0	0.016	
13.0	0.0	0.0	0.0	0.0	0.029	
14.0	0.0	0.0	0.0	0.0	0.013	
15.0	0.0	0.0	0.0	0.0	0.032	
0.0	0.0	0.0	0.0	0.0	0.035	
1.0	0.0	0.0	0.0	0.0	0.051	
2.0	0.0	0.0	0.0	0.0	0.038	
3.0	0.0	0.0	0.0	0.0	0.029	
4.0	0.0	0.0	0.0	0.0	0.013	
5.0	0.0	0.0	0.0	0.0	-0.006	
6.0	0.0	0.0	0.0	0.0	-0.026	
7.0	0.0	0.0	0.0	0.0	-0.029	
8.0	0.0	0.0	0.0	0.0	-0.026	
9.0	0.0	0.0	0.0	0.0	-0.022	
10.0	0.0	0.0	0.0	0.0	-0.01	
11.0	0.0	0.0	0.0	0.0	0.0	
12.0	0.0	0.0	0.0	0.0	0.0	
13.0	0.0	0.0	0.0	0.0	0.013	
14.0	0.0	0.0	0.0	0.0	0.013	
15.0	0.0	0.0	0.0	0.0	0.01	
0.0	0.0	0.0	0.0	0.0	0.0	
1.0	0.0	0.0	0.0	0.0	-0.003	
2.0	0.0	0.0	0.0	0.0	0.01	
3.0	0.0	0.0	0.0	0.0	-0.006	
4.0	0.0	0.0	0.0	0.0	-0.006	
5.0	0.0	0.0	0.0	0.0	0.0	
6.0	0.0	0.0	0.0	0.0	0.006	
7.0	0.0	0.0	0.0	0.0	0.01	
8.0	0.0	0.0	0.0	0.0	0.01	
9.0	0.0	0.0	0.0	0.0	-0.006	
10.0	0.0	0.0	0.0	0.0	-0.01	
11.0	0.0	0.0	0.0	0.0	0.003	
12.0	0.0	0.0	0.0	0.0	0.006	
13.0	0.0	0.0	0.0	0.0	0.006	
14.0	0.0	0.0	0.0	0.0	0.006	
15.0	0.0	0.0	0.0	0.0	0.006	
0.0	0.0	0.0	0.0	0.0	0.019	
1.0	0.0	0.0	0.0	0.0	0.01	
2.0	0.0	0.0	0.0	0.0	0.0	
3.0	0.0	0.0	0.0	0.0	0.0	
4.0	0.0	0.0	0.0	0.0	0.01	
5.0	0.0	0.0	0.0	0.0	0.006	
6.0	0.0	0.0	0.0	0.0	0.006	
7.0	0.0	0.0	0.0	0.0	0.003	
8.0	0.0	0.0	0.0	0.0	0.0	
9.0	0.0	0.0	0.0	0.0	0.003	
10.0	0.0	0.0	0.0	0.0	-0.003	
11.0	0.0	0.0	0.0	0.0	-0.006	
12.0	0.0	0.0	0.0	0.0	0.01	
13.0	0.0	0.0	0.0	0.0	0.01	
14.0	0.0	0.0	0.0	0.0	-0.01	
15.0	0.0	0.0	0.0	0.0	-0.013	
0.0	0.0	0.0	0.0	0.0	0.003	
1.0	0.0	0.0	0.0	0.0	0.0	
2.0	0.0	0.0	0.0	0.0	0.006	
3.0	0.0	0.0	0.0	0.0	0.01	
4.0	0.0	0.0	0.0	0.0	0.01	
5.0	0.0	0.0	0.0	0.0	0.01	
6.0	0.0	0.0	0.0	0.0	0.0	
7.0	0.0	0.0	0.0	0.0	0.01	
8.0	0.0	0.0	0.0	0.0	0.019	
9.0	0.0	0.0	0.0	0.0	0.0	
10.0	0.0	0.0	0.0	0.0	0.003	
11.0	0.0	0.0	0.0	0.0	0.016	
12.0	0.0	0.0	0.0	0.0	0.013	
13.0	0.0	0.0	0.0	0.0	0.013	
14.0	0.0	0.0	0.0	0.0	0.01	
15.0	0.0	0.0	0.0	0.0	0.003	
0.0	0.0	0.0	0.0	0.0	0.003	
1.0	0.0	0.0	0.0	0.0	0.003	
2.0	0.0	0.0	0.0	0.0	0.0	
3.0	0.0	0.0	0.0	0.0	-0.006	
4.0	0.0	0.0	0.0	0.0	0.0	
5.0	0.0	0.0	0.0	0.0	-0.003	
6.0	0.0	0.0	0.0	0.0	0.003	
7.0	0.0	0.0	0.0	0.0	0.006	
8.0	0.0	0.0	0.0	0.0	0.01	
9.0	0.0	0.0	0.0	0.0	0.006	
10.0	0.0	0.0	0.0	0.0	0.01	
11.0	0.0	0.0	0.0	0.0	0.01	
12.0	0.0	0.0	0.0	0.0	0.006	
13.0	0.0	0.0	0.0	0.0	0.0	
14.0	0.0	0.0	0.0	0.0	0.0	
15.0	0.0	0.0	0.0	0.0	-0.013	
0.0	0.0	0.0	0.0	0.0	-0.006	
1.0	0.0	0.0	0.0	0.0	0.0	
2.0	0.0	0.0	0.0	0.0	0.006	
3.0	0.0	0.0	0.0	0.0	0.003	
4.0	0.0	0.0	0.0	0.0	0.006	
5.0	0.0	0.0	0.0	0.0	0.0	
6.0	0.0	0.0	0.0	0.0	0.003	
7.0	0.0	0.0	0.0	0.0	0.0	
8.0	0.0	0.0	0.0	0.0	0.006	
9.0	0.0	0.0	0.0	0.0	-0.003	
10.0	0.0	0.0	0.0	0.0	-0.003	
11.0	0.0	0.0	0.0	0.0	0.0	
12.0	0.0	0.0	0.0	0.0	-0.006	
13.0	0.0	0.0	0.0	0.0	-0.01	
14.0	0.0	0.0	0.0	0.0	-0.006	
15.0	0.0	0.0	0.0	0.0	0.013	
0.0	0.0	0.0	0.0	0.0	0.029	
1.0	0.0	0.0	0.0	0.0	0.022	
2.0	0.0	0.0	0.0	0.0	0.016	
3.0	0.0	0.0	0.0	0.0	0.006	
4.0	0.0	0.0	0.0	0.0	0.003	
5.0	0.0	0.0	0.0	0.0	-0.003	
6.0	0.0	0.0	0.0	0.0	-0.01	
7.0	0.0	0.0	0.0	0.0	-0.013	
8.0	0.0	0.0	0.0	0.0	-0.006	
9.0	0.0	0.0	0.0	0.0	-0.006	
10.0	0.0	0.0	0.0	0.0	-0.003	
11.0	0.0	0.0	0.0	0.0	-0.003	
12.0	0.0	0.0	0.0	0.0	0.0	
13.0	0.0	0.0	0.0	0.0	0.019	
14.0	0.0	0.0	0.0	0.0	0.032	
15.0	0.0	0.0	0.0	0.0	0.029	
0.0	0.0	0.0	0.0	0.0	0.035	
1.0	0.0	0.0	0.0	0.0	0.013	
2.0	0.0	0.0	0.0	0.0	0.003	
3.0	0.0	0.0	0.0	0.0	-0.01	
4.0	0.0	0.0	0.0	0.0	-0.01	
5.0	0.0	0.0	0.0	0.0	-0.003	
6.0	0.0	0.0	0.0	0.0	0.01	
7.0	0.0	0.0	0.0	0.0	0.0	
8.0	0.0	0.0	0.0	0.0	0.0	
9.0	0.0	0.0	0.0	0.0	0.0	
10.0	0.0	0.0	0.0	0.0	-0.006	
11.0	0.0	0.0	0.0	0.0	0.003	
12.0	0.0	0.0	0.0	0.0	0.01	
13.0	0.0	0.0	0.0	0.0	0.013	
14.0	0.0	0.0	0.0	0.0	0.01	
15.0	0.0	0.0	0.0	0.0	0.003	
0.0	0.0	0.0	0.0	0.0	0.013	
1.0	0.0	0.0	0.0	0.0	0.006	
2.0	0.0	0.0	0.0	0.0	0.0	
3.0	0.0	0.0	0.0	0.0	-0.006	
4.0	0.0	0.0	0.0	0.0	-0.006	
5.0	0.0	0.0	0.0	0.0	0.006	
6.0	0.0	0.0	0.0	0.0	0.006	
7.0	0.0	0.0	0.0	0.0	0.003	
8.0	0.0	0.0	0.0	0.0	0.003	
9.0	0.0	0.0	0.0	0.0	0.006	
10.0	0.0	0.0	0.0	0.0	0.016	
11.0	0.0	0.0	0.0	0.0	0.006	
12.0	0.0	0.0	0.0	0.0	0.006	
13.0	0.0	0.0	0.0	0.0	0.006	
14.0	0.0	0.0	0.0	0.0	0.0	
15.0	0.0	0.0	0.0	0.0	0.006	
0.0	0.0	0.0	0.0	0.0	0.003	
1.0	0.0	0.0	0.0	0.0	0.003	
2.0	0.0	0.0	0.0	0.0	0.006	
3.0	0.0	0.0	0.0	0.0	-0.006	
4.0	0.0	0.0	0.0	0.0	0.006	
5.0	0.0	0.0	0.0	0.0	0.006	
6.0	0.0	0.0	0.0	0.0	0.01	
7.0	0.0	0.0	0.0	0.0	0.006	
8.0	0.0	0.0	0.0	0.0	0.016	
9.0	0.0	0.0	0.0	0.0	0.003	
10.0	0.0	0.0	0.0	0.0	0.0	
11.0	0.0	0.0	0.0	0.0	0.019	
12.0	0.0	0.0	0.0	0.0	0.006	
13.0	0.0	0.0	0.0	0.0	0.006	
14.0	0.0	0.0	0.0	0.0	0.01	
15.0	0.0	0.0	0.0	0.0	0.0	
0.0	0.0	0.0	0.0	0.0	0.006	
1.0	0.0	0.0	0.0	0.0	0.01	
2.0	0.0	0.0	0.0	0.0	0.013	
3.0	0.0	0.0	0.0	0.0	-0.013	
4.0	0.0	0.0	0.0	0.0	-0.019	
5.0	0.0	0.0	0.0	0.0	-0.003	
6.0	0.0	0.0	0.0	0.0	0.006	
7.0	0.0	0.0	0.0	0.0	-0.006	
8.0	0.0	0.0	0.0	0.0	0.0	
9.0	0.0	0.0	0.0	0.0	0.0	
10.0	0.0	0.0	0.0	0.0	0.0	
11.0	0.0	0.0	0.0	0.0	0.003	
12.0	0.0	0.0	0.0	0.0	0.006	
13.0	0.0	0.0	0.0	0.0	0.0	
14.0	0.0	0.0	0.0	0.0	-0.013	
15.0	0.0	0.0	0.0	0.0	-0.006	
0.0	0.0	0.0	0.0	0.0	0.006	
1.0	0.0	0.0	0.0	0.0	0.016	
2.0	0.0	0.0	0.0	0.0	0.003	
3.0	0.0	0.0	0.0	0.0	0.003	
4.0	0.0	0.0	0.0	0.0	0.006	
5.0	0.0	0.0	0.0	0.0	0.019	
6.0	0.0	0.0	0.0	0.0	0.022	
7.0	0.0	0.0	0.0	0.0	0.016	
8.0	0.0	0.0	0.0	0.0	0.006	
9.0	0.0	0.0	0.0	0.0	0.006	
10.0	0.0	0.0	0.0	0.0	0.013	
11.0	0.0	0.0	0.0	0.0	0.003	
12.0	0.0	0.0	0.0	0.0	0.003	
13.0	0.0	0.0	0.0	0.0	0.003	
14.0	0.0	0.0	0.0	0.0	-0.006	
15.0	0.0	0.0	0.0	0.0	-0.013	
0.0	0.0	0.0	0.0	0.0	-0.019	
1.0	0.0	0.0	0.0	0.0	-0.006	
2.0	0.0	0.0	0.0	0.0	-0.003	
3.0	0.0	0.0	0.0	0.0	0.013	
4.0	0.0	0.0	0.0	0.0	0.003	
5.0	0.0	0.0	0.0	0.0	-0.003	
6.0	0.0	0.0	0.0	0.0	0.003	
7.0	0.0	0.0	0.0	0.0	0.013	
8.0	0.0	0.0	0.0	0.0	0.016	
9.0	0.0	0.0	0.0	0.0	0.016	
10.0	0.0	0.0	0.0	0.0	0.016	
11.0	0.0	0.0	0.0	0.0	0.019	
12.0	0.0	0.0	0.0	0.0	0.013	
13.0	0.0	0.0	0.0	0.0	0.013	
14.0	0.0	0.0	0.0	0.0	0.016	
15.0	0.0	0.0	0.0	0.0	0.006	
0.0	0.0	0.0	0.0	0.0	0.003	
1.0	0.0	0.0	0.0	0.0	-0.006	
2.0	0.0	0.0	0.0	0.0	-0.01	
3.0	0.0	0.0	0.0	0.0	-0.019	
4.0	0.0	0.0	0.0	0.0	-0.026	
5.0	0.0	0.0	0.0	0.0	-0.022	
6.0	0.0	0.0	0.0	0.0	-0.019	
7.0	0.0	0.0	0.0	0.0	0.0	
8.0	0.0	0.0	0.0	0.0	0.01	
9.0	0.0	0.0	0.0	0.0	0.022	
10.0	0.0	0.0	0.0	0.0	0.019	
11.0	0.0	0.0	0.0	0.0	0.022	
12.0	0.0	0.0	0.0	0.0	0.032	
13.0	0.0	0.0	0.0	0.0	0.029	
14.0	0.0	0.0	0.0	0.0	0.026	
15.0	0.0	0.0	0.0	0.0	0.013	
0.0	0.0	0.0	0.0	0.0	-0.003	
1.0	0.0	0.0	0.0	0.0	-0.003	
2.0	0.0	0.0	0.0	0.0	-0.013	
3.0	0.0	0.0	0.0	0.0	-0.016	
4.0	0.0	0.0	0.0	0.0	-0.01	
5.0	0.0	0.0	0.0	0.0	-0.013	
6.0	0.0	0.0	0.0	0.0	-0.006	
7.0	0.0	0.0	0.0	0.0	-0.003	
8.0	0.0	0.0	0.0	0.0	0.006	
9.0	0.0	0.0	0.0	0.0	0.01	
10.0	0.0	0.0	0.0	0.0	0.01	
11.0	0.0	0.0	0.0	0.0	0.013	
12.0	0.0	0.0	0.0	0.0	0.029	
13.0	0.0	0.0	0.0	0.0	0.029	
14.0	0.0	0.0	0.0	0.0	0.026	
15.0	0.0	0.0	0.0	0.0	0.013	
0.0	0.0	0.0	0.0	0.0	0.006	
1.0	0.0	0.0	0.0	0.0	0.006	
2.0	0.0	0.0	0.0	0.0	0.003	
3.0	0.0	0.0	0.0	0.0	0.0	
4.0	0.0	0.0	0.0	0.0	-0.01	
5.0	0.0	0.0	0.0	0.0	-0.006	
6.0	0.0	0.0	0.0	0.0	-0.003	
7.0	0.0	0.0	0.0	0.0	-0.013	
8.0	0.0	0.0	0.0	0.0	-0.026	
9.0	0.0	0.0	0.0	0.0	-0.026	
10.0	0.0	0.0	0.0	0.0	-0.013	
11.0	0.0	0.0	0.0	0.0	-0.006	
12.0	0.0	0.0	0.0	0.0	-0.006	
13.0	0.0	0.0	0.0	0.0	0.0	
14.0	0.0	0.0	0.0	0.0	0.003	
15.0	0.0	0.0	0.0	0.0	-0.003	
0.0	0.0	0.0	0.0	0.0	-0.003	
1.0	0.0	0.0	0.0	0.0	0.003	
2.0	0.0	0.0	0.0	0.0	0.006	
3.0	0.0	0.0	0.0	0.0	0.003	
4.0	0.0	0.0	0.0	0.0	0.016	
5.0	0.0	0.0	0.0	0.0	0.013	
6.0	0.0	0.0	0.0	0.0	0.003	
7.0	0.0	0.0	0.0	0.0	0.016	
8.0	0.0	0.0	0.0	0.0	0.038	
9.0	0.0	0.0	0.0	0.0	0.026	
10.0	0.0	0.0	0.0	0.0	0.022	
11.0	0.0	0.0	0.0	0.0	0.0	
12.0	0.0	0.0	0.0	0.0	-0.006	
13.0	0.0	0.0	0.0	0.0	-0.019	
14.0	0.0	0.0	0.0	0.0	-0.013	
15.0	0.0	0.0	0.0	0.0	-0.016	
0.0	0.0	0.0	0.0	0.0	-0.003	
1.0	0.0	0.0	0.0	0.0	0.003	
2.0	0.0	0.0	0.0	0.0	0.016	
3.0	0.0	0.0	0.0	0.0	0.019	
4.0	0.0	0.0	0.0	0.0	0.016	
5.0	0.0	0.0	0.0	0.0	0.019	
6.0	0.0	0.0	0.0	0.0	-0.01	
7.0	0.0	0.0	0.0	0.0	-0.003	
8.0	0.0	0.0	0.0	0.0	-0.01	
9.0	0.0	0.0	0.0	0.0	-0.016	
10.0	0.0	0.0	0.0	0.0	-0.013	
11.0	0.0	0.0	0.0	0.0	-0.003	
12.0	0.0	0.0	0.0	0.0	0.0	
13.0	0.0	0.0	0.0	0.0	0.016	
14.0	0.0	0.0	0.0	0.0	0.042	
15.0	0.0	0.0	0.0	0.0	0.057	
0.0	0.0	0.0	0.0	0.0	0.054	
1.0	0.0	0.0	0.0	0.0	0.038	
2.0	0.0	0.0	0.0	0.0	0.022	
3.0	0.0	0.0	0.0	0.0	0.006	
4.0	0.0	0.0	0.0	0.0	0.01	
5.0	0.0	0.0	0.0	0.0	-0.019	
6.0	0.0	0.0	0.0	0.0	-0.022	
7.0	0.0	0.0	0.0	0.0	-0.016	
8.0	0.0	0.0	0.0	0.0	-0.01	
9.0	0.0	0.0	0.0	0.0	0.0	
10.0	0.0	0.0	0.0	0.0	0.003	
11.0	0.0	0.0	0.0	0.0	-0.003	
12.0	0.0	0.0	0.0	0.0	0.01	
13.0	0.0	0.0	0.0	0.0	-0.006	
14.0	0.0	0.0	0.0	0.0	-0.006	
15.0	0.0	0.0	0.0	0.0	-0.01	
0.0	0.0	0.0	0.0	0.0	0.0	
1.0	0.0	0.0	0.0	0.0	-0.003	
2.0	0.0	0.0	0.0	0.0	-0.006	
3.0	0.0	0.0	0.0	0.0	0.003	
4.0	0.0	0.0	0.0	0.0	0.006	
5.0	0.0	0.0	0.0	0.0	-0.003	
6.0	0.0	0.0	0.0	0.0	0.01	
7.0	0.0	0.0	0.0	0.0	0.013	
8.0	0.0	0.0	0.0	0.0	-0.003	
9.0	0.0	0.0	0.0	0.0	-0.003	
10.0	0.0	0.0	0.0	0.0	0.006	
11.0	0.0	0.0	0.0	0.0	0.01	
12.0	0.0	0.0	0.0	0.0	0.003	
13.0	0.0	0.0	0.0	0.0	0.0	
14.0	0.0	0.0	0.0	0.0	0.0	
15.0	0.0	0.0	0.0	0.0	-0.006	
0.0	0.0	0.0	0.0	0.0	0.006	
1.0	0.0	0.0	0.0	0.0	-0.003	
2.0	0.0	0.0	0.0	0.0	0.01	
3.0	0.0	0.0	0.0	0.0	0.006	
4.0	0.0	0.0	0.0	0.0	0.013	
5.0	0.0	0.0	0.0	0.0	0.016	
6.0	0.0	0.0	0.0	0.0	0.0	
7.0	0.0	0.0	0.0	0.0	-0.003	
8.0	0.0	0.0	0.0	0.0	0.003	
9.0	0.0	0.0	0.0	0.0	0.0	
10.0	0.0	0.0	0.0	0.0	0.0	
11.0	0.0	0.0	0.0	0.0	0.016	
12.0	0.0	0.0	0.0	0.0	0.01	
13.0	0.0	0.0	0.0	0.0	0.006	
14.0	0.0	0.0	0.0	0.0	-0.003	
15.0	0.0	0.0	0.0	0.0	-0.003	
0.0	0.0	0.0	0.0	0.0	0.01	
1.0	0.0	0.0	0.0	0.0	0.022	
2.0	0.0	0.0	0.0	0.0	0.022	
3.0	0.0	0.0	0.0	0.0	0.029	
4.0	0.0	0.0	0.0	0.0	-0.006	
5.0	0.0	0.0	0.0	0.0	-0.026	
6.0	0.0	0.0	0.0	0.0	-0.029	
7.0	0.0	0.0	0.0	0.0	-0.022	
8.0	0.0	0.0	0.0	0.0	-0.01	
9.0	0.0	0.0	0.0	0.0	-0.01	
10.0	0.0	0.0	0.0	0.0	0.019	
11.0	0.0	0.0	0.0	0.0	0.022	
12.0	0.0	0.0	0.0	0.0	0.035	
13.0	0.0	0.0	0.0	0.0	0.029	
14.0	0.0	0.0	0.0	0.0	0.013	
15.0	0.0	0.0	0.0	0.0	0.006	
0.0	0.0	0.0	0.0	0.0	0.016	
1.0	0.0	0.0	0.0	0.0	0.0	
2.0	0.0	0.0	0.0	0.0	0.003	
3.0	0.0	0.0	0.0	0.0	-0.003	
4.0	0.0	0.0	0.0	0.0	-0.006	
5.0	0.0	0.0	0.0	0.0	0.003	
6.0	0.0	0.0	0.0	0.0	0.01	
7.0	0.0	0.0	0.0	0.0	0.006	
8.0	0.0	0.0	0.0	0.0	-0.003	
9.0	0.0	0.0	0.0	0.0	-0.003	
10.0	0.0	0.0	0.0	0.0	-0.016	
11.0	0.0	0.0	0.0	0.0	-0.022	
12.0	0.0	0.0	0.0	0.0	0.0	
13.0	0.0	0.0	0.0	0.0	0.022	
14.0	0.0	0.0	0.0	0.0	0.022	
15.0	0.0	0.0	0.0	0.0	0.032	
0.0	0.0	0.0	0.0	0.0	0.019	
1.0	0.0	0.0	0.0	0.0	0.003	
2.0	0.0	0.0	0.0	0.0	0.0	
3.0	0.0	0.0	0.0	0.0	-0.01	
4.0	0.0	0.0	0.0	0.0	0.0	
5.0	0.0	0.0	0.0	0.0	0.0	
6.0	0.0	0.0	0.0	0.0	-0.016	
7.0	0.0	0.0	0.0	0.0	-0.006	
8.0	0.0	0.0	0.0	0.0	-0.006	
9.0	0.0	0.0	0.0	0.0	0.006	
10.0	0.0	0.0	0.0	0.0	0.057	
11.0	0.0	0.0	0.0	0.0	0.073	
12.0	0.0	0.0	0.0	0.0	0.042	
13.0	0.0	0.0	0.0	0.0	-0.006	
14.0	0.0	0.0	0.0	0.0	-0.035	
15.0	0.0	0.0	0.0	0.0	-0.038	
0.0	0.0	0.0	0.0	0.0	-0.029	
1.0	0.0	0.0	0.0	0.0	-0.048	
2.0	0.0	0.0	0.0	0.0	-0.045	
3.0	0.0	0.0	0.0	0.0	-0.026	
4.0	0.0	0.0	0.0	0.0	0.019	
5.0	0.0	0.0	0.0	0.0	0.019	
6.0	0.0	0.0	0.0	0.0	0.048	
7.0	0.0	0.0	0.0	0.0	0.029	
8.0	0.0	0.0	0.0	0.0	-0.006	
9.0	0.0	0.0	0.0	0.0	-0.006	
10.0	0.0	0.0	0.0	0.0	0.01	
11.0	0.0	0.0	0.0	0.0	0.022	
12.0	0.0	0.0	0.0	0.0	0.048	
13.0	0.0	0.0	0.0	0.0	0.048	
14.0	0.0	0.0	0.0	0.0	0.083	
15.0	0.0	0.0	0.0	0.0	0.07	
0.0	0.0	0.0	0.0	0.0	0.026	
1.0	0.0	0.0	0.0	0.0	0.006	
2.0	0.0	0.0	0.0	0.0	-0.038	
3.0	0.0	0.0	0.0	0.0	-0.042	
4.0	0.0	0.0	0.0	0.0	-0.026	
5.0	0.0	0.0	0.0	0.0	-0.003	
6.0	0.0	0.0	0.0	0.0	-0.057	
7.0	0.0	0.0	0.0	0.0	-0.061	
8.0	0.0	0.0	0.0	0.0	-0.029	
9.0	0.0	0.0	0.0	0.0	0.016	
10.0	0.0	0.0	0.0	0.0	-0.026	
11.0	0.0	0.0	0.0	0.0	-0.026	
12.0	0.0	0.0	0.0	0.0	0.003	
13.0	0.0	0.0	0.0	0.0	-0.006	
14.0	0.0	0.0	0.0	0.0	-0.038	
15.0	0.0	0.0	0.0	0.0	-0.019	
0.0	0.0	0.0	0.0	0.0	0.051	
1.0	0.0	0.0	0.0	0.0	0.07	
2.0	0.0	0.0	0.0	0.0	0.061	
3.0	0.0	0.0	0.0	0.0	0.026	
4.0	0.0	0.0	0.0	0.0	0.013	
5.0	0.0	0.0	0.0	0.0	0.0	
6.0	0.0	0.0	0.0	0.0	-0.019	
7.0	0.0	0.0	0.0	0.0	0.003	
8.0	0.0	0.0	0.0	0.0	0.029	
9.0	0.0	0.0	0.0	0.0	0.016	
10.0	0.0	0.0	0.0	0.0	0.042	
11.0	0.0	0.0	0.0	0.0	0.048	
12.0	0.0	0.0	0.0	0.0	0.042	
13.0	0.0	0.0	0.0	0.0	0.08	
14.0	0.0	0.0	0.0	0.0	0.083	
15.0	0.0	0.0	0.0	0.0	0.029	
0.0	0.0	0.0	0.0	0.0	-0.01	
1.0	0.0	0.0	0.0	0.0	-0.029	
2.0	0.0	0.0	0.0	0.0	-0.032	
3.0	0.0	0.0	0.0	0.0	-0.016	
4.0	0.0	0.0	0.0	0.0	-0.019	
5.0	0.0	0.0	0.0	0.0	-0.029	
6.0	0.0	0.0	0.0	0.0	-0.01	
7.0	0.0	0.0	0.0	0.0	0.0	
8.0	0.0	0.0	0.0	0.0	0.0	
9.0	0.0	0.0	0.0	0.0	-0.016	
10.0	0.0	0.0	0.0	0.0	-0.032	
11.0	0.0	0.0	0.0	0.0	0.006	
12.0	0.0	0.0	0.0	0.0	0.019	
13.0	0.0	0.0	0.0	0.0	0.006	
14.0	0.0	0.0	0.0	0.0	0.029	
15.0	0.0	0.0	0.0	0.0	0.038	
0.0	0.0	0.0	0.0	0.0	0.0	
1.0	0.0	0.0	0.0	0.0	0.0	
2.0	0.0	0.0	0.0	0.0	0.013	
3.0	0.0	0.0	0.0	0.0	0.019	
4.0	0.0	0.0	0.0	0.0	0.019	
5.0	0.0	0.0	0.0	0.0	0.0	
6.0	0.0	0.0	0.0	0.0	-0.016	
7.0	0.0	0.0	0.0	0.0	0.013	
8.0	0.0	0.0	0.0	0.0	-0.006	
9.0	0.0	0.0	0.0	0.0	-0.029	
10.0	0.0	0.0	0.0	0.0	-0.016	
11.0	0.0	0.0	0.0	0.0	-0.019	
12.0	0.0	0.0	0.0	0.0	-0.006	
13.0	0.0	0.0	0.0	0.0	0.01	
14.0	0.0	0.0	0.0	0.0	-0.006	
15.0	0.0	0.0	0.0	0.0	0.013	
0.0	0.0	0.0	0.0	0.0	0.013	
1.0	0.0	0.0	0.0	0.0	0.013	
2.0	0.0	0.0	0.0	0.0	-0.019	
3.0	0.0	0.0	0.0	0.0	-0.051	
4.0	0.0	0.0	0.0	0.0	-0.045	
5.0	0.0	0.0	0.0	0.0	-0.026	
6.0	0.0	0.0	0.0	0.0	0.045	
7.0	0.0	0.0	0.0	0.0	-0.003	
8.0	0.0	0.0	0.0	0.0	0.01	
9.0	0.0	0.0	0.0	0.0	0.022	
10.0	0.0	0.0	0.0	0.0	-0.029	
11.0	0.0	0.0	0.0	0.0	-0.026	
12.0	0.0	0.0	0.0	0.0	0.006	
13.0	0.0	0.0	0.0	0.0	-0.003	
14.0	0.0	0.0	0.0	0.0	-0.022	
15.0	0.0	0.0	0.0	0.0	-0.042	
0.0	0.0	0.0	0.0	0.0	-0.048	
1.0	0.0	0.0	0.0	0.0	-0.035	
2.0	0.0	0.0	0.0	0.0	-0.016	
3.0	0.0	0.0	0.0	0.0	-0.032	
4.0	0.0	0.0	0.0	0.0	0.013	
5.0	0.0	0.0	0.0	0.0	0.032	
6.0	0.0	0.0	0.0	0.0	0.048	
7.0	0.0	0.0	0.0	0.0	0.07	
8.0	0.0	0.0	0.0	0.0	0.109	
9.0	0.0	0.0	0.0	0.0	0.096	
10.0	0.0	0.0	0.0	0.0	0.077	
11.0	0.0	0.0	0.0	0.0	0.051	
12.0	0.0	0.0	0.0	0.0	-0.038	
13.0	0.0	0.0	0.0	0.0	-0.054	
14.0	0.0	0.0	0.0	0.0	-0.064	
15.0	0.0	0.0	0.0	0.0	-0.061	
0.0	0.0	0.0	0.0	0.0	-0.048	
1.0	0.0	0.0	0.0	0.0	-0.035	
2.0	0.0	0.0	0.0	0.0	-0.029	
3.0	0.0	0.0	0.0	0.0	-0.022	
4.0	0.0	0.0	0.0	0.0	-0.026	
5.0	0.0	0.0	0.0	0.0	-0.013	
6.0	0.0	0.0	0.0	0.0	0.022	
7.0	0.0	0.0	0.0	0.0	0.029	
8.0	0.0	0.0	0.0	0.0	0.016	
9.0	0.0	0.0	0.0	0.0	0.0	
10.0	0.0	0.0	0.0	0.0	-0.003	
11.0	0.0	0.0	0.0	0.0	-0.003	
12.0	0.0	0.0	0.0	0.0	-0.013	
13.0	0.0	0.0	0.0	0.0	-0.022	
14.0	0.0	0.0	0.0	0.0	0.006	
15.0	0.0	0.0	0.0	0.0	0.013	
0.0	0.0	0.0	0.0	0.0	0.026	
1.0	0.0	0.0	0.0	0.0	-0.01	
2.0	0.0	0.0	0.0	0.0	0.029	
3.0	0.0	0.0	0.0	0.0	0.054	
4.0	0.0	0.0	0.0	0.0	0.032	
5.0	0.0	0.0	0.0	0.0	0.013	
6.0	0.0	0.0	0.0	0.0	0.019	
7.0	0.0	0.0	0.0	0.0	0.016	
8.0	0.0	0.0	0.0	0.0	0.01	
9.0	0.0	0.0	0.0	0.0	-0.013	
10.0	0.0	0.0	0.0	0.0	0.006	
11.0	0.0	0.0	0.0	0.0	0.035	
12.0	0.0	0.0	0.0	0.0	0.026	
13.0	0.0	0.0	0.0	0.0	0.016	
14.0	0.0	0.0	0.0	0.0	0.003	
15.0	0.0	0.0	0.0	0.0	0.029	
0.0	0.0	0.0	0.0	0.0	0.029	
1.0	0.0	0.0	0.0	0.0	-0.003	
2.0	0.0	0.0	0.0	0.0	0.0	
3.0	0.0	0.0	0.0	0.0	-0.016	
4.0	0.0	0.0	0.0	0.0	-0.051	
5.0	0.0	0.0	0.0	0.0	-0.067	
6.0	0.0	0.0	0.0	0.0	-0.061	
7.0	0.0	0.0	0.0	0.0	-0.067	
8.0	0.0	0.0	0.0	0.0	-0.026	
9.0	0.0	0.0	0.0	0.0	-0.013	
10.0	0.0	0.0	0.0	0.0	0.019	
11.0	0.0	0.0	0.0	0.0	0.057	
12.0	0.0	0.0	0.0	0.0	0.093	
13.0	0.0	0.0	0.0	0.0	0.089	
14.0	0.0	0.0	0.0	0.0	0.064	
15.0	0.0	0.0	0.0	0.0	0.029	
0.0	0.0	0.0	0.0	0.0	0.032	
1.0	0.0	0.0	0.0	0.0	0.019	
2.0	0.0	0.0	0.0	0.0	-0.003	
3.0	0.0	0.0	0.0	0.0	-0.013	
4.0	0.0	0.0	0.0	0.0	-0.006	
5.0	0.0	0.0	0.0	0.0	-0.029	
6.0	0.0	0.0	0.0	0.0	-0.064	
7.0	0.0	0.0	0.0	0.0	-0.048	
8.0	0.0	0.0	0.0	0.0	-0.061	
9.0	0.0	0.0	0.0	0.0	-0.051	
10.0	0.0	0.0	0.0	0.0	0.0	
11.0	0.0	0.0	0.0	0.0	0.038	
12.0	0.0	0.0	0.0	0.0	0.032	
13.0	0.0	0.0	0.0	0.0	0.019	
14.0	0.0	0.0	0.0	0.0	-0.016	
15.0	0.0	0.0	0.0	0.0	-0.019	
0.0	0.0	0.0	0.0	0.0	0.022	
1.0	0.0	0.0	0.0	0.0	0.019	
2.0	0.0	0.0	0.0	0.0	0.01	
3.0	0.0	0.0	0.0	0.0	0.0	
4.0	0.0	0.0	0.0	0.0	-0.006	
5.0	0.0	0.0	0.0	0.0	-0.016	
6.0	0.0	0.0	0.0	0.0	-0.048	
7.0	0.0	0.0	0.0	0.0	-0.051	
8.0	0.0	0.0	0.0	0.0	-0.01	
9.0	0.0	0.0	0.0	0.0	0.099	
10.0	0.0	0.0	0.0	0.0	0.077	
11.0	0.0	0.0	0.0	0.0	0.016	
12.0	0.0	0.0	0.0	0.0	-0.019	
13.0	0.0	0.0	0.0	0.0	-0.026	
14.0	0.0	0.0	0.0	0.0	-0.013	
15.0	0.0	0.0	0.0	0.0	-0.032	
0.0	0.0	0.0	0.0	0.0	-0.057	
1.0	0.0	0.0	0.0	0.0	-0.054	
2.0	0.0	0.0	0.0	0.0	0.032	
3.0	0.0	0.0	0.0	0.0	0.038	
4.0	0.0	0.0	0.0	0.0	0.038	
5.0	0.0	0.0	0.0	0.0	0.077	
6.0	0.0	0.0	0.0	0.0	0.073	
7.0	0.0	0.0	0.0	0.0	0.105	
8.0	0.0	0.0	0.0	0.0	0.067	
9.0	0.0	0.0	0.0	0.0	-0.003	
10.0	0.0	0.0	0.0	0.0	0.016	
11.0	0.0	0.0	0.0	0.0	0.029	
12.0	0.0	0.0	0.0	0.0	-0.048	
13.0	0.0	0.0	0.0	0.0	-0.026	
14.0	0.0	0.0	0.0	0.0	0.01	
15.0	0.0	0.0	0.0	0.0	-0.029	
0.0	0.0	0.0	0.0	0.0	-0.022	
1.0	0.0	0.0	0.0	0.0	0.029	
2.0	0.0	0.0	0.0	0.0	-0.013	
3.0	0.0	0.0	0.0	0.0	-0.032	
4.0	0.0	0.0	0.0	0.0	-0.016	
5.0	0.0	0.0	0.0	0.0	-0.016	
6.0	0.0	0.0	0.0	0.0	-0.042	
7.0	0.0	0.0	0.0	0.0	-0.048	
8.0	0.0	0.0	0.0	0.0	0.013	
9.0	0.0	0.0	0.0	0.0	0.048	
10.0	0.0	0.0	0.0	0.0	0.089	
11.0	0.0	0.0	0.0	0.0	0.099	
12.0	0.0	0.0	0.0	0.0	0.093	
13.0	0.0	0.0	0.0	0.0	0.054	
14.0	0.0	0.0	0.0	0.0	0.022	
15.0	0.0	0.0	0.0	0.0	0.013	
0.0	0.0	0.0	0.0	0.0	-0.01	
1.0	0.0	0.0	0.0	0.0	-0.003	
2.0	0.0	0.0	0.0	0.0	-0.026	
3.0	0.0	0.0	0.0	0.0	-0.029	
4.0	0.0	0.0	0.0	0.0	-0.051	
5.0	0.0	0.0	0.0	0.0	-0.054	
6.0	0.0	0.0	0.0	0.0	-0.051	
7.0	0.0	0.0	0.0	0.0	-0.054	
8.0	0.0	0.0	0.0	0.0	-0.042	
9.0	0.0	0.0	0.0	0.0	-0.003	
10.0	0.0	0.0	0.0	0.0	0.022	
11.0	0.0	0.0	0.0	0.0	0.045	
12.0	0.0	0.0	0.0	0.0	0.061	
13.0	0.0	0.0	0.0	0.0	0.026	
14.0	0.0	0.0	0.0	0.0	0.016	
15.0	0.0	0.0	0.0	0.0	0.038	
0.0	0.0	0.0	0.0	0.0	0.038	
1.0	0.0	0.0	0.0	0.0	0.013	
2.0	0.0	0.0	0.0	0.0	-0.006	
3.0	0.0	0.0	0.0	0.0	0.019	
4.0	0.0	0.0	0.0	0.0	0.016	
5.0	0.0	0.0	0.0	0.0	-0.019	
6.0	0.0	0.0	0.0	0.0	-0.035	
7.0	0.0	0.0	0.0	0.0	-0.01	
8.0	0.0	0.0	0.0	0.0	-0.032	
9.0	0.0	0.0	0.0	0.0	-0.01	
10.0	0.0	0.0	0.0	0.0	-0.032	
11.0	0.0	0.0	0.0	0.0	-0.029	
12.0	0.0	0.0	0.0	0.0	-0.022	
13.0	0.0	0.0	0.0	0.0	-0.016	
14.0	0.0	0.0	0.0	0.0	-0.022	
15.0	0.0	0.0	0.0	0.0	0.006	
0.0	0.0	0.0	0.0	0.0	0.0	
1.0	0.0	0.0	0.0	0.0	0.048	
2.0	0.0	0.0	0.0	0.0	0.026	
3.0	0.0	0.0	0.0	0.0	-0.003	
4.0	0.0	0.0	0.0	0.0	0.0	
5.0	0.0	0.0	0.0	0.0	-0.013	
6.0	0.0	0.0	0.0	0.0	-0.042	
7.0	0.0	0.0	0.0	0.0	-0.042	
8.0	0.0	0.0	0.0	0.0	0.01	
9.0	0.0	0.0	0.0	0.0	-0.045	
10.0	0.0	0.0	0.0	0.0	-0.045	
11.0	0.0	0.0	0.0	0.0	-0.029	
12.0	0.0	0.0	0.0	0.0	0.013	
13.0	0.0	0.0	0.0	0.0	0.0	
14.0	0.0	0.0	0.0	0.0	0.006	
15.0	0.0	0.0	0.0	0.0	0.045	
0.0	0.0	0.0	0.0	0.0	0.032	
1.0	0.0	0.0	0.0	0.0	0.01	
2.0	0.0	0.0	0.0	0.0	0.077	
3.0	0.0	0.0	0.0	0.0	0.064	
4.0	0.0	0.0	0.0	0.0	0.048	
5.0	0.0	0.0	0.0	0.0	0.035	
6.0	0.0	0.0	0.0	0.0	0.048	
7.0	0.0	0.0	0.0	0.0	0.029	
8.0	0.0	0.0	0.0	0.0	0.029	
9.0	0.0	0.0	0.0	0.0	0.0	
10.0	0.0	0.0	0.0	0.0	0.0	
11.0	0.0	0.0	0.0	0.0	0.01	
12.0	0.0	0.0	0.0	0.0	-0.019	
13.0	0.0	0.0	0.0	0.0	-0.026	
14.0	0.0	0.0	0.0	0.0	-0.042	
15.0	0.0	0.0	0.0	0.0	-0.022	
0.0	0.0	0.0	0.0	0.0	0.0	
1.0	0.0	0.0	0.0	0.0	-0.016	
2.0	0.0	0.0	0.0	0.0	-0.022	
3.0	0.0	0.0	0.0	0.0	-0.006	
4.0	0.0	0.0	0.0	0.0	0.029	
5.0	0.0	0.0	0.0	0.0	0.006	
6.0	0.0	0.0	0.0	0.0	0.003	
7.0	0.0	0.0	0.0	0.0	0.019	
8.0	0.0	0.0	0.0	0.0	0.0	
9.0	0.0	0.0	0.0	0.0	0.032	
10.0	0.0	0.0	0.0	0.0	0.067	
11.0	0.0	0.0	0.0	0.0	0.038	
12.0	0.0	0.0	0.0	0.0	0.013	
13.0	0.0	0.0	0.0	0.0	0.038	
14.0	0.0	0.0	0.0	0.0	-0.003	
15.0	0.0	0.0	0.0	0.0	-0.01	
0.0	0.0	0.0	0.0	0.0	0.013	
1.0	0.0	0.0	0.0	0.0	0.013	
2.0	0.0	0.0	0.0	0.0	-0.01	
3.0	0.0	0.0	0.0	0.0	-0.064	
4.0	0.0	0.0	0.0	0.0	-0.08	
5.0	0.0	0.0	0.0	0.0	-0.048	
6.0	0.0	0.0	0.0	0.0	-0.019	
7.0	0.0	0.0	0.0	0.0	-0.006	
8.0	0.0	0.0	0.0	0.0	0.026	
9.0	0.0	0.0	0.0	0.0	0.022	
10.0	0.0	0.0	0.0	0.0	0.019	
11.0	0.0	0.0	0.0	0.0	-0.032	
12.0	0.0	0.0	0.0	0.0	-0.026	
13.0	0.0	0.0	0.0	0.0	0.006	
14.0	0.0	0.0	0.0	0.0	0.067	
15.0	0.0	0.0	0.0	0.0	0.045	
0.0	0.0	0.0	0.0	0.0	0.01	
1.0	0.0	0.0	0.0	0.0	0.073	
2.0	0.0	0.0	0.0	0.0	0.105	
3.0	0.0	0.0	0.0	0.0	0.125	
4.0	0.0	0.0	0.0	0.0	0.134	
5.0	0.0	0.0	0.0	0.0	0.083	
6.0	0.0	0.0	0.0	0.0	-0.042	
7.0	0.0	0.0	0.0	0.0	-0.093	
8.0	0.0	0.0	0.0	0.0	-0.057	
9.0	0.0	0.0	0.0	0.0	-0.08	
10.0	0.0	0.0	0.0	0.0	-0.096	
11.0	0.0	0.0	0.0	0.0	-0.102	
12.0	0.0	0.0	0.0	0.0	-0.102	
13.0	0.0	0.0	0.0	0.0	-0.057	
14.0	0.0	0.0	0.0	0.0	0.019	
15.0	0.0	0.0	0.0	0.0	0.048	
0.0	0.0	0.0	0.0	0.0	0.029	
1.0	0.0	0.0	0.0	0.0	0.061	
2.0	0.0	0.0	0.0	0.0	0.054	
3.0	0.0	0.0	0.0	0.0	0.057	
4.0	0.0	0.0	0.0	0.0	0.026	
5.0	0.0	0.0	0.0	0.0	0.0	
6.0	0.0	0.0	0.0	0.0	-0.022	
7.0	0.0	0.0	0.0	0.0	-0.051	
8.0	0.0	0.0	0.0	0.0	-0.054	
9.0	0.0	0.0	0.0	0.0	-0.083	
10.0	0.0	0.0	0.0	0.0	-0.019	
11.0	0.0	0.0	0.0	0.0	-0.038	
12.0	0.0	0.0	0.0	0.0	-0.016	
13.0	0.0	0.0	0.0	0.0	0.0	
14.0	0.0	0.0	0.0	0.0	0.01	
15.0	0.0	0.0	0.0	0.0	0.054	
0.0	0.0	0.0	0.0	0.0	0.054	
1.0	0.0	0.0	0.0	0.0	0.016	
2.0	0.0	0.0	0.0	0.0	0.073	
3.0	0.0	0.0	0.0	0.0	0.042	
4.0	0.0	0.0	0.0	0.0	-0.026	
5.0	0.0	0.0	0.0	0.0	-0.016	
6.0	0.0	0.0	0.0	0.0	-0.026	
7.0	0.0	0.0	0.0	0.0	0.003	
8.0	0.0	0.0	0.0	0.0	0.019	
9.0	0.0	0.0	0.0	0.0	0.048	
10.0	0.0	0.0	0.0	0.0	0.064	
11.0	0.0	0.0	0.0	0.0	0.08	
12.0	0.0	0.0	0.0	0.0	0.067	
13.0	0.0	0.0	0.0	0.0	0.051	
14.0	0.0	0.0	0.0	0.0	0.01	
15.0	0.0	0.0	0.0	0.0	-0.013	
0.0	0.0	0.0	0.0	0.0	-0.003	
1.0	0.0	0.0	0.0	0.0	-0.022	
2.0	0.0	0.0	0.0	0.0	-0.057	
3.0	0.0	0.0	0.0	0.0	-0.042	
4.0	0.0	0.0	0.0	0.0	-0.073	
5.0	0.0	0.0	0.0	0.0	-0.026	
6.0	0.0	0.0	0.0	0.0	0.003	
7.0	0.0	0.0	0.0	0.0	0.026	
8.0	0.0	0.0	0.0	0.0	0.073	
9.0	0.0	0.0	0.0	0.0	0.067	
10.0	0.0	0.0	0.0	0.0	-0.022	
11.0	0.0	0.0	0.0	0.0	-0.006	
12.0	0.0	0.0	0.0	0.0	0.022	
13.0	0.0	0.0	0.0	0.0	-0.038	
14.0	0.0	0.0	0.0	0.0	-0.042	
15.0	0.0	0.0	0.0	0.0	-0.042	
0.0	0.0	0.0	0.0	0.0	-0.019	
1.0	0.0	0.0	0.0	0.0	0.0	
2.0	0.0	0.0	0.0	0.0	0.01	
3.0	0.0	0.0	0.0	0.0	-0.01	
4.0	0.0	0.0	0.0	0.0	-0.016	
5.0	0.0	0.0	0.0	0.0	0.013	
6.0	0.0	0.0	0.0	0.0	0.016	
7.0	0.0	0.0	0.0	0.0	0.003	
8.0	0.0	0.0	0.0	0.0	0.045	
9.0	0.0	0.0	0.0	0.0	0.048	
10.0	0.0	0.0	0.0	0.0	0.042	
11.0	0.0	0.0	0.0	0.0	0.01	
12.0	0.0	0.0	0.0	0.0	-0.013	
13.0	0.0	0.0	0.0	0.0	0.0	
14.0	0.0	0.0	0.0	0.0	0.003	
15.0	0.0	0.0	0.0	0.0	0.003	
0.0	0.0	0.0	0.0	0.0	0.01	
1.0	0.0	0.0	0.0	0.0	-0.013	
2.0	0.0	0.0	0.0	0.0	-0.01	
3.0	0.0	0.0	0.0	0.0	-0.003	
4.0	0.0	0.0	0.0	0.0	0.016	
5.0	0.0	0.0	0.0	0.0	0.006	
6.0	0.0	0.0	0.0	0.0	-0.003	
7.0	0.0	0.0	0.0	0.0	0.026	
8.0	0.0	0.0	0.0	0.0	-0.022	
9.0	0.0	0.0	0.0	0.0	-0.042	
10.0	0.0	0.0	0.0	0.0	-0.019	
11.0	0.0	0.0	0.0	0.0	0.01	
12.0	0.0	0.0	0.0	0.0	0.01	
13.0	0.0	0.0	0.0	0.0	0.013	
14.0	0.0	0.0	0.0	0.0	0.042	
15.0	0.0	0.0	0.0	0.0	0.121	
0.0	0.0	0.0	0.0	0.0	0.118	
1.0	0.0	0.0	0.0	0.0	0.029	
2.0	0.0	0.0	0.0	0.0	-0.038	
3.0	0.0	0.0	0.0	0.0	-0.026	
4.0	0.0	0.0	0.0	0.0	-0.057	
5.0	0.0	0.0	0.0	0.0	-0.026	
6.0	0.0	0.0	0.0	0.0	-0.003	
7.0	0.0	0.0	0.0	0.0	-0.022	
8.0	0.0	0.0	0.0	0.0	-0.026	
9.0	0.0	0.0	0.0	0.0	-0.029	
10.0	0.0	0.0	0.0	0.0	-0.016	
11.0	0.0	0.0	0.0	0.0	-0.006	
12.0	0.0	0.0	0.0	0.0	0.003	
13.0	0.0	0.0	0.0	0.0	-0.026	
14.0	0.0	0.0	0.0	0.0	-0.016	
15.0	0.0	0.0	0.0	0.0	0.019	
0.0	0.0	0.0	0.0	0.0	0.029	
1.0	0.0	0.0	0.0	0.0	0.042	
2.0	0.0	0.0	0.0	0.0	0.077	
3.0	0.0	0.0	0.0	0.0	0.054	
4.0	0.0	0.0	0.0	0.0	0.032	
5.0	0.0	0.0	0.0	0.0	0.026	
6.0	0.0	0.0	0.0	0.0	0.022	
7.0	0.0	0.0	0.0	0.0	-0.029	
8.0	0.0	0.0	0.0	0.0	-0.026	
9.0	0.0	0.0	0.0	0.0	0.032	
10.0	0.0	0.0	0.0	0.0	0.057	
11.0	0.0	0.0	0.0	0.0	0.067	
12.0	0.0	0.0	0.0	0.0	0.067	
13.0	0.0	0.0	0.0	0.0	0.026	
14.0	0.0	0.0	0.0	0.0	-0.003	
15.0	0.0	0.0	0.0	0.0	-0.035	
0.0	0.0	0.0	0.0	0.0	-0.051	
1.0	0.0	0.0	0.0	0.0	-0.006	
2.0	0.0	0.0	0.0	0.0	0.038	
3.0	0.0	0.0	0.0	0.0	0.01	
4.0	0.0	0.0	0.0	0.0	-0.038	
5.0	0.0	0.0	0.0	0.0	-0.08	
6.0	0.0	0.0	0.0	0.0	-0.057	
7.0	0.0	0.0	0.0	0.0	0.016	
8.0	0.0	0.0	0.0	0.0	0.003	
9.0	0.0	0.0	0.0	0.0	-0.006	
10.0	0.0	0.0	0.0	0.0	-0.016	
11.0	0.0	0.0	0.0	0.0	-0.019	
12.0	0.0	0.0	0.0	0.0	0.038	
13.0	0.0	0.0	0.0	0.0	0.026	
14.0	0.0	0.0	0.0	0.0	0.022	
15.0	0.0	0.0	0.0	0.0	-0.022	
0.0	0.0	0.0	0.0	0.0	-0.054	
1.0	0.0	0.0	0.0	0.0	-0.029	
2.0	0.0	0.0	0.0	0.0	-0.013	
3.0	0.0	0.0	0.0	0.0	-0.006	
4.0	0.0	0.0	0.0	0.0	-0.003	
5.0	0.0	0.0	0.0	0.0	-0.006	
6.0	0.0	0.0	0.0	0.0	-0.006	
7.0	0.0	0.0	0.0	0.0	0.042	
8.0	0.0	0.0	0.0	0.0	0.054	
9.0	0.0	0.0	0.0	0.0	0.022	
10.0	0.0	0.0	0.0	0.0	0.0	
11.0	0.0	0.0	0.0	0.0	0.038	
12.0	0.0	0.0	0.0	0.0	0.054	
13.0	0.0	0.0	0.0	0.0	0.029	
14.0	0.0	0.0	0.0	0.0	-0.003	
15.0	0.0	0.0	0.0	0.0	0.016	
0.0	0.0	0.0	0.0	0.0	-0.006	
1.0	0.0	0.0	0.0	0.0	-0.051	
2.0	0.0	0.0	0.0	0.0	-0.019	
3.0	0.0	0.0	0.0	0.0	0.042	
4.0	0.0	0.0	0.0	0.0	0.086	
5.0	0.0	0.0	0.0	0.0	0.048	
6.0	0.0	0.0	0.0	0.0	0.013	
7.0	0.0	0.0	0.0	0.0	0.016	
8.0	0.0	0.0	0.0	0.0	-0.022	
9.0	0.0	0.0	0.0	0.0	-0.048	
10.0	0.0	0.0	0.0	0.0	-0.064	
11.0	0.0	0.0	0.0	0.0	-0.042	
12.0	0.0	0.0	0.0	0.0	-0.022	
13.0	0.0	0.0	0.0	0.0	0.003	
14.0	0.0	0.0	0.0	0.0	0.019	
15.0	0.0	0.0	0.0	0.0	0.051	
0.0	0.0	0.0	0.0	0.0	0.029	
1.0	0.0	0.0	0.0	0.0	0.01	
2.0	0.0	0.0	0.0	0.0	0.01	
3.0	0.0	0.0	0.0	0.0	-0.067	
4.0	0.0	0.0	0.0	0.0	-0.067	
5.0	0.0	0.0	0.0	0.0	-0.038	
6.0	0.0	0.0	0.0	0.0	-0.006	
7.0	0.0	0.0	0.0	0.0	-0.006	
8.0	0.0	0.0	0.0	0.0	0.0	
9.0	0.0	0.0	0.0	0.0	0.038	
10.0	0.0	0.0	0.0	0.0	0.096	
11.0	0.0	0.0	0.0	0.0	0.121	
12.0	0.0	0.0	0.0	0.0	0.077	
13.0	0.0	0.0	0.0	0.0	0.035	
14.0	0.0	0.0	0.0	0.0	-0.01	
15.0	0.0	0.0	0.0	0.0	-0.057	
0.0	0.0	0.0	0.0	0.0	-0.073	
1.0	0.0	0.0	0.0	0.0	-0.086	
2.0	0.0	0.0	0.0	0.0	-0.054	
3.0	0.0	0.0	0.0	0.0	-0.013	
4.0	0.0	0.0	0.0	0.0	0.048	
5.0	0.0	0.0	0.0	0.0	0.054	
6.0	0.0	0.0	0.0	0.0	0.083	
7.0	0.0	0.0	0.0	0.0	0.093	
8.0	0.0	0.0	0.0	0.0	0.099	
9.0	0.0	0.0	0.0	0.0	0.064	
10.0	0.0	0.0	0.0	0.0	-0.042	
11.0	0.0	0.0	0.0	0.0	-0.07	
12.0	0.0	0.0	0.0	0.0	-0.144	
13.0	0.0	0.0	0.0	0.0	-0.147	
14.0	0.0	0.0	0.0	0.0	-0.08	
15.0	0.0	0.0	0.0	0.0	-0.035	
0.0	0.0	0.0	0.0	0.0	0.006	
1.0	0.0	0.0	0.0	0.0	0.038	
2.0	0.0	0.0	0.0	0.0	0.077	
3.0	0.0	0.0	0.0	0.0	0.051	
4.0	0.0	0.0	0.0	0.0	-0.029	
5.0	0.0	0.0	0.0	0.0	-0.003	
6.0	0.0	0.0	0.0	0.0	0.07	
7.0	0.0	0.0	0.0	0.0	0.089	
8.0	0.0	0.0	0.0	0.0	0.061	
9.0	0.0	0.0	0.0	0.0	0.029	
10.0	0.0	0.0	0.0	0.0	-0.029	
11.0	0.0	0.0	0.0	0.0	-0.105	
12.0	0.0	0.0	0.0	0.0	-0.112	
13.0	0.0	0.0	0.0	0.0	-0.08	
14.0	0.0	0.0	0.0	0.0	-0.042	
15.0	0.0	0.0	0.0	0.0	-0.013	
0.0	0.0	0.0	0.0	0.0	0.054	
1.0	0.0	0.0	0.0	0.0	0.077	
2.0	0.0	0.0	0.0	0.0	0.08	
3.0	0.0	0.0	0.0	0.0	0.086	
4.0	0.0	0.0	0.0	0.0	0.093	
5.0	0.0	0.0	0.0	0.0	0.045	
6.0	0.0	0.0	0.0	0.0	0.003	
7.0	0.0	0.0	0.0	0.0	-0.016	
8.0	0.0	0.0	0.0	0.0	-0.016	
9.0	0.0	0.0	0.0	0.0	0.0	
10.0	0.0	0.0	0.0	0.0	-0.003	
11.0	0.0	0.0	0.0	0.0	-0.006	
12.0	0.0	0.0	0.0	0.0	-0.026	
13.0	0.0	0.0	0.0	0.0	0.022	
14.0	0.0	0.0	0.0	0.0	0.035	
15.0	0.0	0.0	0.0	0.0	0.054	
0.0	0.0	0.0	0.0	0.0	0.022	
1.0	0.0	0.0	0.0	0.0	-0.016	
2.0	0.0	0.0	0.0	0.0	0.003	
3.0	0.0	0.0	0.0	0.0	0.0	
4.0	0.0	0.0	0.0	0.0	-0.013	
5.0	0.0	0.0	0.0	0.0	-0.109	
6.0	0.0	0.0	0.0	0.0	-0.089	
7.0	0.0	0.0	0.0	0.0	-0.064	
8.0	0.0	0.0	0.0	0.0	-0.051	
9.0	0.0	0.0	0.0	0.0	0.019	
10.0	0.0	0.0	0.0	0.0	0.061	
11.0	0.0	0.0	0.0	0.0	0.105	
12.0	0.0	0.0	0.0	0.0	0.115	
13.0	0.0	0.0	0.0	0.0	0.07	
14.0	0.0	0.0	0.0	0.0	0.019	
15.0	0.0	0.0	0.0	0.0	-0.006	
0.0	0.0	0.0	0.0	0.0	0.003	
1.0	0.0	0.0	0.0	0.0	0.029	
2.0	0.0	0.0	0.0	0.0	0.013	
3.0	0.0	0.0	0.0	0.0	-0.038	
4.0	0.0	0.0	0.0	0.0	-0.051	
5.0	0.0	0.0	0.0	0.0	-0.042	
6.0	0.0	0.0	0.0	0.0	-0.042	
7.0	0.0	0.0	0.0	0.0	-0.035	
8.0	0.0	0.0	0.0	0.0	-0.032	
9.0	0.0	0.0	0.0	0.0	0.022	
10.0	0.0	0.0	0.0	0.0	0.086	
11.0	0.0	0.0	0.0	0.0	0.077	
12.0	0.0	0.0	0.0	0.0	0.048	
13.0	0.0	0.0	0.0	0.0	0.032	
14.0	0.0	0.0	0.0	0.0	0.026	
15.0	0.0	0.0	0.0	0.0	0.019	
0.0	0.0	0.0	0.0	0.0	0.006	
1.0	0.0	0.0	0.0	0.0	-0.016	
2.0	0.0	0.0	0.0	0.0	-0.035	
3.0	0.0	0.0	0.0	0.0	-0.016	
4.0	0.0	0.0	0.0	0.0	-0.01	
5.0	0.0	0.0	0.0	0.0	-0.003	
6.0	0.0	0.0	0.0	0.0	-0.013	
7.0	0.0	0.0	0.0	0.0	0.093	
8.0	0.0	0.0	0.0	0.0	0.064	
9.0	0.0	0.0	0.0	0.0	-0.003	
10.0	0.0	0.0	0.0	0.0	-0.01	
11.0	0.0	0.0	0.0	0.0	0.019	
12.0	0.0	0.0	0.0	0.0	0.013	
13.0	0.0	0.0	0.0	0.0	-0.073	
14.0	0.0	0.0	0.0	0.0	-0.118	
15.0	0.0	0.0	0.0	0.0	-0.061	
0.0	0.0	0.0	0.0	0.0	-0.051	
1.0	0.0	0.0	0.0	0.0	-0.026	
2.0	0.0	0.0	0.0	0.0	0.006	
3.0	0.0	0.0	0.0	0.0	-0.006	
4.0	0.0	0.0	0.0	0.0	-0.013	
5.0	0.0	0.0	0.0	0.0	0.038	
6.0	0.0	0.0	0.0	0.0	0.051	
7.0	0.0	0.0	0.0	0.0	0.045	
8.0	0.0	0.0	0.0	0.0	0.035	
9.0	0.0	0.0	0.0	0.0	0.003	
10.0	0.0	0.0	0.0	0.0	-0.026	
11.0	0.0	0.0	0.0	0.0	0.0	
12.0	0.0	0.0	0.0	0.0	0.016	
13.0	0.0	0.0	0.0	0.0	0.01	
14.0	0.0	0.0	0.0	0.0	-0.006	
15.0	0.0	0.0	0.0	0.0	0.045	
0.0	0.0	0.0	0.0	0.0	0.054	
1.0	0.0	0.0	0.0	0.0	-0.003	
2.0	0.0	0.0	0.0	0.0	0.0	
3.0	0.0	0.0	0.0	0.0	0.016	
4.0	0.0	0.0	0.0	0.0	0.019	
5.0	0.0	0.0	0.0	0.0	0.035	
6.0	0.0	0.0	0.0	0.0	0.016	
7.0	0.0	0.0	0.0	0.0	0.01	
8.0	0.0	0.0	0.0	0.0	0.038	
9.0	0.0	0.0	0.0	0.0	0.045	
10.0	0.0	0.0	0.0	0.0	0.0	
11.0	0.0	0.0	0.0	0.0	-0.073	
12.0	0.0	0.0	0.0	0.0	-0.099	
13.0	0.0	0.0	0.0	0.0	-0.064	
14.0	0.0	0.0	0.0	0.0	-0.042	
15.0	0.0	0.0	0.0	0.0	-0.019	
0.0	0.0	0.0	0.0	0.0	-0.006	
1.0	0.0	0.0	0.0	0.0	0.026	
2.0	0.0	0.0	0.0	0.0	0.048	
3.0	0.0	0.0	0.0	0.0	0.057	
4.0	0.0	0.0	0.0	0.0	0.032	
5.0	0.0	0.0	0.0	0.0	0.006	
6.0	0.0	0.0	0.0	0.0	-0.026	
7.0	0.0	0.0	0.0	0.0	-0.051	
8.0	0.0	0.0	0.0	0.0	-0.054	
9.0	0.0	0.0	0.0	0.0	-0.035	
10.0	0.0	0.0	0.0	0.0	-0.003	
11.0	0.0	0.0	0.0	0.0	0.042	
12.0	0.0	0.0	0.0	0.0	0.064	
13.0	0.0	0.0	0.0	0.0	0.086	
14.0	0.0	0.0	0.0	0.0	0.147	
15.0	0.0	0.0	0.0	0.0	0.157	
0.0	0.0	0.0	0.0	0.0	0.064	
1.0	0.0	0.0	0.0	0.0	-0.029	
2.0	0.0	0.0	0.0	0.0	-0.061	
3.0	0.0	0.0	0.0	0.0	-0.073	
4.0	0.0	0.0	0.0	0.0	-0.064	
5.0	0.0	0.0	0.0	0.0	-0.054	
6.0	0.0	0.0	0.0	0.0	-0.054	
7.0	0.0	0.0	0.0	0.0	-0.051	
8.0	0.0	0.0	0.0	0.0	-0.048	
9.0	0.0	0.0	0.0	0.0	-0.019	
10.0	0.0	0.0	0.0	0.0	-0.01	
11.0	0.0	0.0	0.0	0.0	0.013	
12.0	0.0	0.0	0.0	0.0	0.054	
13.0	0.0	0.0	0.0	0.0	0.064	
14.0	0.0	0.0	0.0	0.0	0.048	
15.0	0.0	0.0	0.0	0.0	0.042	
0.0	0.0	0.0	0.0	0.0	0.057	
1.0	0.0	0.0	0.0	0.0	0.057	
2.0	0.0	0.0	0.0	0.0	0.022	
3.0	0.0	0.0	0.0	0.0	-0.032	
4.0	0.0	0.0	0.0	0.0	-0.042	
5.0	0.0	0.0	0.0	0.0	-0.064	
6.0	0.0	0.0	0.0	0.0	-0.077	
7.0	0.0	0.0	0.0	0.0	-0.073	
8.0	0.0	0.0	0.0	0.0	-0.077	
9.0	0.0	0.0	0.0	0.0	-0.019	
10.0	0.0	0.0	0.0	0.0	0.003	
11.0	0.0	0.0	0.0	0.0	0.073	
12.0	0.0	0.0	0.0	0.0	0.147	
13.0	0.0	0.0	0.0	0.0	0.141	
14.0	0.0	0.0	0.0	0.0	0.073	
15.0	0.0	0.0	0.0	0.0	-0.029	
0.0	0.0	0.0	0.0	0.0	-0.026	
1.0	0.0	0.0	0.0	0.0	-0.073	
2.0	0.0	0.0	0.0	0.0	-0.093	
3.0	0.0	0.0	0.0	0.0	-0.061	
4.0	0.0	0.0	0.0	0.0	0.019	
5.0	0.0	0.0	0.0	0.0	0.029	
6.0	0.0	0.0	0.0	0.0	0.0	
7.0	0.0	0.0	0.0	0.0	-0.013	
8.0	0.0	0.0	0.0	0.0	-0.022	
9.0	0.0	0.0	0.0	0.0	-0.016	
10.0	0.0	0.0	0.0	0.0	-0.026	
11.0	0.0	0.0	0.0	0.0	0.013	
12.0	0.0	0.0	0.0	0.0	0.048	
13.0	0.0	0.0	0.0	0.0	0.006	
14.0	0.0	0.0	0.0	0.0	-0.003	
15.0	0.0	0.0	0.0	0.0	-0.045	
0.0	0.0	0.0	0.0	0.0	-0.026	
1.0	0.0	0.0	0.0	0.0	-0.022	
2.0	0.0	0.0	0.0	0.0	-0.022	
3.0	0.0	0.0	0.0	0.0	0.0	
4.0	0.0	0.0	0.0	0.0	0.032	
5.0	0.0	0.0	0.0	0.0	0.035	
6.0	0.0	0.0	0.0	0.0	0.048	
7.0	0.0	0.0	0.0	0.0	0.026	
8.0	0.0	0.0	0.0	0.0	-0.003	
9.0	0.0	0.0	0.0	0.0	0.022	
10.0	0.0	0.0	0.0	0.0	0.042	
11.0	0.0	0.0	0.0	0.0	0.07	
12.0	0.0	0.0	0.0	0.0	0.077	
13.0	0.0	0.0	0.0	0.0	0.067	
14.0	0.0	0.0	0.0	0.0	0.051	
15.0	0.0	0.0	0.0	0.0	0.048	
0.0	0.0	0.0	0.0	0.0	0.022	
1.0	0.0	0.0	0.0	0.0	-0.032	
2.0	0.0	0.0	0.0	0.0	-0.026	
3.0	0.0	0.0	0.0	0.0	-0.064	
4.0	0.0	0.0	0.0	0.0	-0.032	
5.0	0.0	0.0	0.0	0.0	-0.016	
6.0	0.0	0.0	0.0	0.0	-0.013	
7.0	0.0	0.0	0.0	0.0	0.022	
8.0	0.0	0.0	0.0	0.0	0.01	
9.0	0.0	0.0	0.0	0.0	-0.016	
10.0	0.0	0.0	0.0	0.0	0.0	
11.0	0.0	0.0	0.0	0.0	0.0	
12.0	0.0	0.0	0.0	0.0	0.026	
13.0	0.0	0.0	0.0	0.0	0.035	
14.0	0.0	0.0	0.0	0.0	0.01	
15.0	0.0	0.0	0.0	0.0	-0.019	
0.0	0.0	0.0	0.0	0.0	-0.029	
1.0	0.0	0.0	0.0	0.0	-0.029	
2.0	0.0	0.0	0.0	0.0	-0.019	
3.0	0.0	0.0	0.0	0.0	-0.035	
4.0	0.0	0.0	0.0	0.0	-0.006	
5.0	0.0	0.0	0.0	0.0	0.019	
6.0	0.0	0.0	0.0	0.0	0.026	
7.0	0.0	0.0	0.0	0.0	0.019	
8.0	0.0	0.0	0.0	0.0	0.048	
9.0	0.0	0.0	0.0	0.0	0.061	
10.0	0.0	0.0	0.0	0.0	0.032	
11.0	0.0	0.0	0.0	0.0	0.022	
12.0	0.0	0.0	0.0	0.0	-0.006	
13.0	0.0	0.0	0.0	0.0	0.026	
14.0	0.0	0.0	0.0	0.0	0.042	
15.0	0.0	0.0	0.0	0.0	0.003	
0.0	0.0	0.0	0.0	0.0	-0.006	
1.0	0.0	0.0	0.0	0.0	-0.01	
2.0	0.0	0.0	0.0	0.0	0.013	
3.0	0.0	0.0	0.0	0.0	0.003	
4.0	0.0	0.0	0.0	0.0	0.022	
5.0	0.0	0.0	0.0	0.0	-0.006	
6.0	0.0	0.0	0.0	0.0	-0.057	
7.0	0.0	0.0	0.0	0.0	-0.086	
8.0	0.0	0.0	0.0	0.0	-0.042	
9.0	0.0	0.0	0.0	0.0	-0.006	
10.0	0.0	0.0	0.0	0.0	0.006	
11.0	0.0	0.0	0.0	0.0	0.006	
12.0	0.0	0.0	0.0	0.0	0.022	
13.0	0.0	0.0	0.0	0.0	0.022	
14.0	0.0	0.0	0.0	0.0	0.013	
15.0	0.0	0.0	0.0	0.0	0.01	
0.0	0.0	0.0	0.0	0.0	-0.022	
1.0	0.0	0.0	0.0	0.0	-0.051	
2.0	0.0	0.0	0.0	0.0	-0.045	
3.0	0.0	0.0	0.0	0.0	-0.032	
4.0	0.0	0.0	0.0	0.0	-0.029	
5.0	0.0	0.0	0.0	0.0	-0.01	
6.0	0.0	0.0	0.0	0.0	0.022	
7.0	0.0	0.0	0.0	0.0	0.061	
8.0	0.0	0.0	0.0	0.0	0.054	
9.0	0.0	0.0	0.0	0.0	0.057	
10.0	0.0	0.0	0.0	0.0	0.022	
11.0	0.0	0.0	0.0	0.0	0.109	
12.0	0.0	0.0	0.0	0.0	0.057	
13.0	0.0	0.0	0.0	0.0	-0.042	
14.0	0.0	0.0	0.0	0.0	-0.016	
15.0	0.0	0.0	0.0	0.0	-0.057	
0.0	0.0	0.0	0.0	0.0	-0.057	
1.0	0.0	0.0	0.0	0.0	-0.038	
2.0	0.0	0.0	0.0	0.0	-0.022	
3.0	0.0	0.0	0.0	0.0	0.038	
4.0	0.0	0.0	0.0	0.0	0.029	
5.0	0.0	0.0	0.0	0.0	0.006	
6.0	0.0	0.0	0.0	0.0	0.032	
7.0	0.0	0.0	0.0	0.0	0.045	
8.0	0.0	0.0	0.0	0.0	0.019	
9.0	0.0	0.0	0.0	0.0	0.0	
10.0	0.0	0.0	0.0	0.0	0.013	
11.0	0.0	0.0	0.0	0.0	-0.038	
12.0	0.0	0.0	0.0	0.0	0.019	
13.0	0.0	0.0	0.0	0.0	0.013	
14.0	0.0	0.0	0.0	0.0	-0.032	
15.0	0.0	0.0	0.0	0.0	-0.029	
0.0	0.0	0.0	0.0	0.0	0.006	
1.0	0.0	0.0	0.0	0.0	0.013	
2.0	0.0	0.0	0.0	0.0	0.019	
3.0	0.0	0.0	0.0	0.0	0.003	
4.0	0.0	0.0	0.0	0.0	0.026	
5.0	0.0	0.0	0.0	0.0	-0.006	
6.0	0.0	0.0	0.0	0.0	-0.07	
7.0	0.0	0.0	0.0	0.0	-0.048	
8.0	0.0	0.0	0.0	0.0	-0.026	
9.0	0.0	0.0	0.0	0.0	-0.032	
10.0	0.0	0.0	0.0	0.0	0.01	
11.0	0.0	0.0	0.0	0.0	0.105	
12.0	0.0	0.0	0.0	0.0	0.121	
13.0	0.0	0.0	0.0	0.0	0.032	
14.0	0.0	0.0	0.0	0.0	-0.029	
15.0	0.0	0.0	0.0	0.0	-0.003	
0.0	0.0	0.0	0.0	0.0	-0.038	
1.0	0.0	0.0	0.0	0.0	-0.073	
2.0	0.0	0.0	0.0	0.0	-0.026	
3.0	0.0	0.0	0.0	0.0	0.038	
4.0	0.0	0.0	0.0	0.0	0.121	
5.0	0.0	0.0	0.0	0.0	0.166	
6.0	0.0	0.0	0.0	0.0	0.137	
7.0	0.0	0.0	0.0	0.0	0.061	
8.0	0.0	0.0	0.0	0.0	-0.042	
9.0	0.0	0.0	0.0	0.0	-0.112	
10.0	0.0	0.0	0.0	0.0	-0.096	
11.0	0.0	0.0	0.0	0.0	-0.054	
12.0	0.0	0.0	0.0	0.0	-0.029	
13.0	0.0	0.0	0.0	0.0	-0.032	
14.0	0.0	0.0	0.0	0.0	-0.064	
15.0	0.0	0.0	0.0	0.0	-0.026	
0.0	0.0	0.0	0.0	0.0	0.019	
1.0	0.0	0.0	0.0	0.0	0.026	
2.0	0.0	0.0	0.0	0.0	0.026	
3.0	0.0	0.0	0.0	0.0	0.061	
4.0	0.0	0.0	0.0	0.0	0.086	
5.0	0.0	0.0	0.0	0.0	0.038	
6.0	0.0	0.0	0.0	0.0	0.013	
7.0	0.0	0.0	0.0	0.0	-0.016	
8.0	0.0	0.0	0.0	0.0	-0.045	
9.0	0.0	0.0	0.0	0.0	-0.035	
10.0	0.0	0.0	0.0	0.0	-0.013	
11.0	0.0	0.0	0.0	0.0	-0.016	
12.0	0.0	0.0	0.0	0.0	-0.016	
13.0	0.0	0.0	0.0	0.0	-0.026	
14.0	0.0	0.0	0.0	0.0	-0.013	
15.0	0.0	0.0	0.0	0.0	-0.038	
0.0	0.0	0.0	0.0	0.0	0.0	
1.0	0.0	0.0	0.0	0.0	0.029	
2.0	0.0	0.0	0.0	0.0	0.029	
3.0	0.0	0.0	0.0	0.0	0.019	
4.0	0.0	0.0	0.0	0.0	0.022	
5.0	0.0	0.0	0.0	0.0	-0.006	
6.0	0.0	0.0	0.0	0.0	-0.016	
7.0	0.0	0.0	0.0	0.0	0.032	
8.0	0.0	0.0	0.0	0.0	0.048	
9.0	0.0	0.0	0.0	0.0	-0.022	
10.0	0.0	0.0	0.0	0.0	-0.035	
11.0	0.0	0.0	0.0	0.0	-0.026	
12.0	0.0	0.0	0.0	0.0	-0.022	
13.0	0.0	0.0	0.0	0.0	-0.042	
14.0	0.0	0.0	0.0	0.0	-0.026	
15.0	0.0	0.0	0.0	0.0	0.035	
0.0	0.0	0.0	0.0	0.0	0.064	
1.0	0.0	0.0	0.0	0.0	0.022	
2.0	0.0	0.0	0.0	0.0	0.038	
3.0	0.0	0.0	0.0	0.0	0.07	
4.0	0.0	0.0	0.0	0.0	0.006	
5.0	0.0	0.0	0.0	0.0	-0.045	
6.0	0.0	0.0	0.0	0.0	-0.042	
7.0	0.0	0.0	0.0	0.0	-0.029	
8.0	0.0	0.0	0.0	0.0	-0.016	
9.0	0.0	0.0	0.0	0.0	0.035	
10.0	0.0	0.0	0.0	0.0	0.051	
11.0	0.0	0.0	0.0	0.0	0.019	
12.0	0.0	0.0	0.0	0.0	0.048	
13.0	0.0	0.0	0.0	0.0	0.016	
14.0	0.0	0.0	0.0	0.0	-0.019	
15.0	0.0	0.0	0.0	0.0	0.019	
0.0	0.0	0.0	0.0	0.0	-0.003	
1.0	0.0	0.0	0.0	0.0	-0.035	
2.0	0.0	0.0	0.0	0.0	-0.029	
3.0	0.0	0.0	0.0	0.0	-0.013	
4.0	0.0	0.0	0.0	0.0	-0.051	
5.0	0.0	0.0	0.0	0.0	-0.042	
6.0	0.0	0.0	0.0	0.0	0.003	
7.0	0.0	0.0	0.0	0.0	0.0	
8.0	0.0	0.0	0.0	0.0	0.019	
9.0	0.0	0.0	0.0	0.0	0.064	
10.0	0.0	0.0	0.0	0.0	0.086	
11.0	0.0	0.0	0.0	0.0	0.051	
12.0	0.0	0.0	0.0	0.0	0.128	
13.0	0.0	0.0	0.0	0.0	0.131	
14.0	0.0	0.0	0.0	0.0	0.022	
15.0	0.0	0.0	0.0	0.0	-0.038	
0.0	0.0	0.0	0.0	0.0	-0.064	
1.0	0.0	0.0	0.0	0.0	-0.07	
2.0	0.0	0.0	0.0	0.0	-0.045	
3.0	0.0	0.0	0.0	0.0	0.01	
4.0	0.0	0.0	0.0	0.0	0.019	
5.0	0.0	0.0	0.0	0.0	-0.006	
6.0	0.0	0.0	0.0	0.0	-0.019	
7.0	0.0	0.0	0.0	0.0	-0.032	
8.0	0.0	0.0	0.0	0.0	0.022	
9.0	0.0	0.0	0.0	0.0	0.032	
10.0	0.0	0.0	0.0	0.0	0.029	
11.0	0.0	0.0	0.0	0.0	0.038	
12.0	0.0	0.0	0.0	0.0	0.048	
13.0	0.0	0.0	0.0	0.0	0.045	
14.0	0.0	0.0	0.0	0.0	0.003	
15.0	0.0	0.0	0.0	0.0	-0.006	
0.0	0.0	0.0	0.0	0.0	-0.022	
1.0	0.0	0.0	0.0	0.0	-0.019	
2.0	0.0	0.0	0.0	0.0	-0.016	
3.0	0.0	0.0	0.0	0.0	0.006	
4.0	0.0	0.0	0.0	0.0	0.013	
5.0	0.0	0.0	0.0	0.0	-0.013	
6.0	0.0	0.0	0.0	0.0	0.016	
7.0	0.0	0.0	0.0	0.0	-0.013	
8.0	0.0	0.0	0.0	0.0	-0.006	
9.0	0.0	0.0	0.0	0.0	0.013	
10.0	0.0	0.0	0.0	0.0	0.013	
11.0	0.0	0.0	0.0	0.0	-0.029	
12.0	0.0	0.0	0.0	0.0	-0.045	
13.0	0.0	0.0	0.0	0.0	-0.016	
14.0	0.0	0.0	0.0	0.0	-0.019	
15.0	0.0	0.0	0.0	0.0	-0.013	
0.0	0.0	0.0	0.0	0.0	0.003	
1.0	0.0	0.0	0.0	0.0	0.013	
2.0	0.0	0.0	0.0	0.0	0.003	
3.0	0.0	0.0	0.0	0.0	0.01	
4.0	0.0	0.0	0.0	0.0	0.022	
5.0	0.0	0.0	0.0	0.0	-0.006	
6.0	0.0	0.0	0.0	0.0	0.01	
7.0	0.0	0.0	0.0	0.0	0.026	
8.0	0.0	0.0	0.0	0.0	0.019	
9.0	0.0	0.0	0.0	0.0	0.026	
10.0	0.0	0.0	0.0	0.0	0.022	
11.0	0.0	0.0	0.0	0.0	0.006	
12.0	0.0	0.0	0.0	0.0	0.003	
13.0	0.0	0.0	0.0	0.0	-0.016	
14.0	0.0	0.0	0.0	0.0	-0.01	
15.0	0.0	0.0	0.0	0.0	0.0	
0.0	0.0	0.0	0.0	0.0	0.057	
1.0	0.0	0.0	0.0	0.0	0.051	
2.0	0.0	0.0	0.0	0.0	0.038	
3.0	0.0	0.0	0.0	0.0	0.019	
4.0	0.0	0.0	0.0	0.0	0.01	
5.0	0.0	0.0	0.0	0.0	-0.057	
6.0	0.0	0.0	0.0	0.0	-0.064	
7.0	0.0	0.0	0.0	0.0	-0.045	
8.0	0.0	0.0	0.0	0.0	-0.048	
9.0	0.0	0.0	0.0	0.0	-0.01	
10.0	0.0	0.0	0.0	0.0	0.019	
11.0	0.0	0.0	0.0	0.0	0.0	
12.0	0.0	0.0	0.0	0.0	-0.026	
13.0	0.0	0.0	0.0	0.0	-0.006	
14.0	0.0	0.0	0.0	0.0	0.013	
15.0	0.0	0.0	0.0	0.0	0.013	
0.0	0.0	0.0	0.0	0.0	0.01	
1.0	0.0	0.0	0.0	0.0	-0.016	
2.0	0.0	0.0	0.0	0.0	-0.016	
3.0	0.0	0.0	0.0	0.0	0.032	
4.0	0.0	0.0	0.0	0.0	0.029	
5.0	0.0	0.0	0.0	0.0	0.019	
6.0	0.0	0.0	0.0	0.0	0.032	
7.0	0.0	0.0	0.0	0.0	0.057	
8.0	0.0	0.0	0.0	0.0	0.073	
9.0	0.0	0.0	0.0	0.0	0.013	
10.0	0.0	0.0	0.0	0.0	-0.064	
11.0	0.0	0.0	0.0	0.0	-0.086	
12.0	0.0	0.0	0.0	0.0	-0.093	
13.0	0.0	0.0	0.0	0.0	-0.096	
14.0	0.0	0.0	0.0	0.0	-0.051	
15.0	0.0	0.0	0.0	0.0	0.019	
0.0	0.0	0.0	0.0	0.0	0.057	
1.0	0.0	0.0	0.0	0.0	0.08	
2.0	0.0	0.0	0.0	0.0	0.08	
3.0	0.0	0.0	0.0	0.0	0.045	
4.0	0.0	0.0	0.0	0.0	0.073	
5.0	0.0	0.0	0.0	0.0	0.08	
6.0	0.0	0.0	0.0	0.0	0.131	
7.0	0.0	0.0	0.0	0.0	0.089	
8.0	0.0	0.0	0.0	0.0	-0.016	
9.0	0.0	0.0	0.0	0.0	-0.07	
10.0	0.0	0.0	0.0	0.0	-0.109	
11.0	0.0	0.0	0.0	0.0	-0.109	
12.0	0.0	0.0	0.0	0.0	-0.061	
13.0	0.0	0.0	0.0	0.0	-0.01	
14.0	0.0	0.0	0.0	0.0	0.035	
15.0	0.0	0.0	0.0	0.0	0.035	
0.0	0.0	0.0	0.0	0.0	0.016	
1.0	0.0	0.0	0.0	0.0	0.038	
2.0	0.0	0.0	0.0	0.0	0.051	
3.0	0.0	0.0	0.0	0.0	0.048	
4.0	0.0	0.0	0.0	0.0	0.019	
5.0	0.0	0.0	0.0	0.0	-0.01	
6.0	0.0	0.0	0.0	0.0	-0.022	
7.0	0.0	0.0	0.0	0.0	-0.035	
8.0	0.0	0.0	0.0	0.0	-0.029	
9.0	0.0	0.0	0.0	0.0	-0.019	
10.0	0.0	0.0	0.0	0.0	-0.042	
11.0	0.0	0.0	0.0	0.0	-0.029	
12.0	0.0	0.0	0.0	0.0	0.003	
13.0	0.0	0.0	0.0	0.0	0.022	
14.0	0.0	0.0	0.0	0.0	0.01	
15.0	0.0	0.0	0.0	0.0	0.042	
0.0	0.0	0.0	0.0	0.0	0.042	
1.0	0.0	0.0	0.0	0.0	0.013	
2.0	0.0	0.0	0.0	0.0	0.0	
3.0	0.0	0.0	0.0	0.0	0.006	
4.0	0.0	0.0	0.0	0.0	0.003	
5.0	0.0	0.0	0.0	0.0	-0.022	
6.0	0.0	0.0	0.0	0.0	-0.016	
7.0	0.0	0.0	0.0	0.0	-0.006	
8.0	0.0	0.0	0.0	0.0	0.0	
9.0	0.0	0.0	0.0	0.0	-0.006	
10.0	0.0	0.0	0.0	0.0	0.0	
11.0	0.0	0.0	0.0	0.0	0.0	
12.0	0.0	0.0	0.0	0.0	0.006	
13.0	0.0	0.0	0.0	0.0	-0.006	
14.0	0.0	0.0	0.0	0.0	0.006	
15.0	0.0	0.0	0.0	0.0	0.038	
0.0	0.0	0.0	0.0	0.0	0.054	
1.0	0.0	0.0	0.0	0.0	-0.006	
2.0	0.0	0.0	0.0	0.0	-0.042	
3.0	0.0	0.0	0.0	0.0	-0.051	
4.0	0.0	0.0	0.0	0.0	0.003	
5.0	0.0	0.0	0.0	0.0	-0.003	
6.0	0.0	0.0	0.0	0.0	-0.026	
7.0	0.0	0.0	0.0	0.0	-0.019	
8.0	0.0	0.0	0.0	0.0	-0.01	
9.0	0.0	0.0	0.0	0.0	0.0	
10.0	0.0	0.0	0.0	0.0	-0.01	
11.0	0.0	0.0	0.0	0.0	-0.029	
12.0	0.0	0.0	0.0	0.0	-0.026	
13.0	0.0	0.0	0.0	0.0	-0.003	
14.0	0.0	0.0	0.0	0.0	0.048	
15.0	0.0	0.0	0.0	0.0	0.057	
0.0	0.0	0.0	0.0	0.0	0.042	
1.0	0.0	0.0	0.0	0.0	0.035	
2.0	0.0	0.0	0.0	0.0	0.061	
3.0	0.0	0.0	0.0	0.0	0.147	
4.0	0.0	0.0	0.0	0.0	0.022	
5.0	0.0	0.0	0.0	0.0	-0.067	
6.0	0.0	0.0	0.0	0.0	-0.067	
7.0	0.0	0.0	0.0	0.0	-0.115	
8.0	0.0	0.0	0.0	0.0	-0.045	
9.0	0.0	0.0	0.0	0.0	0.089	
10.0	0.0	0.0	0.0	0.0	0.153	
11.0	0.0	0.0	0.0	0.0	0.265	
12.0	0.0	0.0	0.0	0.0	0.23	
13.0	0.0	0.0	0.0	0.0	0.038	
14.0	0.0	0.0	0.0	0.0	-0.112	
15.0	0.0	0.0	0.0	0.0	-0.166	
0.0	0.0	0.0	0.0	0.0	-0.182	
1.0	0.0	0.0	0.0	0.0	-0.141	
2.0	0.0	0.0	0.0	0.0	-0.105	
3.0	0.0	0.0	0.0	0.0	-0.064	
4.0	0.0	0.0	0.0	0.0	-0.022	
5.0	0.0	0.0	0.0	0.0	0.013	
6.0	0.0	0.0	0.0	0.0	0.051	
7.0	0.0	0.0	0.0	0.0	0.048	
8.0	0.0	0.0	0.0	0.0	0.042	
9.0	0.0	0.0	0.0	0.0	0.051	
10.0	0.0	0.0	0.0	0.0	0.038	
11.0	0.0	0.0	0.0	0.0	0.026	
12.0	0.0	0.0	0.0	0.0	0.026	
13.0	0.0	0.0	0.0	0.0	0.022	
14.0	0.0	0.0	0.0	0.0	0.045	
15.0	0.0	0.0	0.0	0.0	0.045	
0.0	0.0	0.0	0.0	0.0	0.077	
1.0	0.0	0.0	0.0	0.0	0.07	
2.0	0.0	0.0	0.0	0.0	0.064	
3.0	0.0	0.0	0.0	0.0	0.054	
4.0	0.0	0.0	0.0	0.0	0.038	
5.0	0.0	0.0	0.0	0.0	0.019	
6.0	0.0	0.0	0.0	0.0	-0.016	
7.0	0.0	0.0	0.0	0.0	-0.035	
8.0	0.0	0.0	0.0	0.0	-0.048	
9.0	0.0	0.0	0.0	0.0	-0.051	
10.0	0.0	0.0	0.0	0.0	-0.022	
11.0	0.0	0.0	0.0	0.0	-0.016	
12.0	0.0	0.0	0.0	0.0	-0.022	
13.0	0.0	0.0	0.0	0.0	-0.045	
14.0	0.0	0.0	0.0	0.0	-0.051	
15.0	0.0	0.0	0.0	0.0	-0.022	
0.0	0.0	0.0	0.0	0.0	-0.026	
1.0	0.0	0.0	0.0	0.0	-0.032	
2.0	0.0	0.0	0.0	0.0	-0.067	
3.0	0.0	0.0	0.0	0.0	-0.096	
4.0	0.0	0.0	0.0	0.0	-0.048	
5.0	0.0	0.0	0.0	0.0	-0.013	
6.0	0.0	0.0	0.0	0.0	-0.022	
7.0	0.0	0.0	0.0	0.0	-0.038	
8.0	0.0	0.0	0.0	0.0	0.016	
9.0	0.0	0.0	0.0	0.0	0.22	
10.0	0.0	0.0	0.0	0.0	0.275	
11.0	0.0	0.0	0.0	0.0	0.16	
12.0	0.0	0.0	0.0	0.0	0.115	
13.0	0.0	0.0	0.0	0.0	0.016	
14.0	0.0	0.0	0.0	0.0	-0.077	
15.0	0.0	0.0	0.0	0.0	-0.08	
0.0	0.0	0.0	0.0	0.0	-0.115	
1.0	0.0	0.0	0.0	0.0	-0.125	
2.0	0.0	0.0	0.0	0.0	-0.109	
3.0	0.0	0.0	0.0	0.0	-0.048	
4.0	0.0	0.0	0.0	0.0	0.061	
5.0	0.0	0.0	0.0	0.0	0.077	
6.0	0.0	0.0	0.0	0.0	0.048	
7.0	0.0	0.0	0.0	0.0	0.042	
8.0	0.0	0.0	0.0	0.0	-0.006	
9.0	0.0	0.0	0.0	0.0	0.026	
10.0	0.0	0.0	0.0	0.0	-0.057	
11.0	0.0	0.0	0.0	0.0	-0.109	
12.0	0.0	0.0	0.0	0.0	-0.134	
13.0	0.0	0.0	0.0	0.0	-0.099	
14.0	0.0	0.0	0.0	0.0	-0.006	
15.0	0.0	0.0	0.0	0.0	0.051	
0.0	0.0	0.0	0.0	0.0	0.176	
1.0	0.0	0.0	0.0	0.0	0.256	
2.0	0.0	0.0	0.0	0.0	0.144	
3.0	0.0	0.0	0.0	0.0	0.057	
4.0	0.0	0.0	0.0	0.0	0.045	
5.0	0.0	0.0	0.0	0.0	-0.057	
6.0	0.0	0.0	0.0	0.0	-0.064	
7.0	0.0	0.0	0.0	0.0	-0.057	
8.0	0.0	0.0	0.0	0.0	-0.035	
9.0	0.0	0.0	0.0	0.0	-0.057	
10.0	0.0	0.0	0.0	0.0	-0.019	
11.0	0.0	0.0	0.0	0.0	0.035	
12.0	0.0	0.0	0.0	0.0	0.112	
13.0	0.0	0.0	0.0	0.0	0.172	
14.0	0.0	0.0	0.0	0.0	0.185	
15.0	0.0	0.0	0.0	0.0	0.153	
0.0	0.0	0.0	0.0	0.0	0.093	
1.0	0.0	0.0	0.0	0.0	-0.006	
2.0	0.0	0.0	0.0	0.0	-0.102	
3.0	0.0	0.0	0.0	0.0	-0.115	
4.0	0.0	0.0	0.0	0.0	-0.089	
5.0	0.0	0.0	0.0	0.0	-0.067	
6.0	0.0	0.0	0.0	0.0	-0.029	
7.0	0.0	0.0	0.0	0.0	-0.019	
8.0	0.0	0.0	0.0	0.0	-0.029	
9.0	0.0	0.0	0.0	0.0	-0.054	
10.0	0.0	0.0	0.0	0.0	-0.026	
11.0	0.0	0.0	0.0	0.0	-0.032	
12.0	0.0	0.0	0.0	0.0	-0.003	
13.0	0.0	0.0	0.0	0.0	-0.01	
14.0	0.0	0.0	0.0	0.0	0.003	
15.0	0.0	0.0	0.0	0.0	0.0	
0.0	0.0	0.0	0.0	0.0	0.035	
1.0	0.0	0.0	0.0	0.0	0.077	
2.0	0.0	0.0	0.0	0.0	0.112	
3.0	0.0	0.0	0.0	0.0	0.093	
4.0	0.0	0.0	0.0	0.0	0.029	
5.0	0.0	0.0	0.0	0.0	-0.026	
6.0	0.0	0.0	0.0	0.0	-0.042	
7.0	0.0	0.0	0.0	0.0	-0.026	
8.0	0.0	0.0	0.0	0.0	-0.045	
9.0	0.0	0.0	0.0	0.0	-0.013	
10.0	0.0	0.0	0.0	0.0	-0.013	
11.0	0.0	0.0	0.0	0.0	0.032	
12.0	0.0	0.0	0.0	0.0	-0.006	
13.0	0.0	0.0	0.0	0.0	0.01	
14.0	0.0	0.0	0.0	0.0	-0.022	
15.0	0.0	0.0	0.0	0.0	0.019	
0.0	0.0	0.0	0.0	0.0	0.029	
1.0	0.0	0.0	0.0	0.0	0.061	
2.0	0.0	0.0	0.0	0.0	-0.01	
3.0	0.0	0.0	0.0	0.0	-0.07	
4.0	0.0	0.0	0.0	0.0	-0.042	
5.0	0.0	0.0	0.0	0.0	-0.013	
6.0	0.0	0.0	0.0	0.0	-0.032	
7.0	0.0	0.0	0.0	0.0	-0.029	
8.0	0.0	0.0	0.0	0.0	0.0	
9.0	0.0	0.0	0.0	0.0	0.035	
10.0	0.0	0.0	0.0	0.0	0.083	
11.0	0.0	0.0	0.0	0.0	0.048	
12.0	0.0	0.0	0.0	0.0	0.042	
13.0	0.0	0.0	0.0	0.0	-0.057	
14.0	0.0	0.0	0.0	0.0	-0.112	
15.0	0.0	0.0	0.0	0.0	-0.061	
0.0	0.0	0.0	0.0	0.0	-0.099	
1.0	0.0	0.0	0.0	0.0	-0.125	
2.0	0.0	0.0	0.0	0.0	-0.105	
3.0	0.0	0.0	0.0	0.0	-0.054	
4.0	0.0	0.0	0.0	0.0	-0.042	
5.0	0.0	0.0	0.0	0.0	0.093	
6.0	0.0	0.0	0.0	0.0	0.188	
7.0	0.0	0.0	0.0	0.0	0.096	
8.0	0.0	0.0	0.0	0.0	0.01	
9.0	0.0	0.0	0.0	0.0	-0.026	
10.0	0.0	0.0	0.0	0.0	-0.067	
11.0	0.0	0.0	0.0	0.0	-0.054	
12.0	0.0	0.0	0.0	0.0	-0.019	
13.0	0.0	0.0	0.0	0.0	0.112	
14.0	0.0	0.0	0.0	0.0	0.224	
15.0	0.0	0.0	0.0	0.0	0.23	
0.0	0.0	0.0	0.0	0.0	0.112	
1.0	0.0	0.0	0.0	0.0	-0.042	
2.0	0.0	0.0	0.0	0.0	-0.051	
3.0	0.0	0.0	0.0	0.0	-0.057	
4.0	0.0	0.0	0.0	0.0	-0.057	
5.0	0.0	0.0	0.0	0.0	-0.057	
6.0	0.0	0.0	0.0	0.0	-0.064	
7.0	0.0	0.0	0.0	0.0	-0.067	
8.0	0.0	0.0	0.0	0.0	-0.099	
9.0	0.0	0.0	0.0	0.0	-0.115	
10.0	0.0	0.0	0.0	0.0	-0.022	
11.0	0.0	0.0	0.0	0.0	0.054	
12.0	0.0	0.0	0.0	0.0	0.115	
13.0	0.0	0.0	0.0	0.0	0.051	
14.0	0.0	0.0	0.0	0.0	0.022	
15.0	0.0	0.0	0.0	0.0	-0.029	
0.0	0.0	0.0	0.0	0.0	-0.077	
1.0	0.0	0.0	0.0	0.0	-0.042	
2.0	0.0	0.0	0.0	0.0	0.006	
3.0	0.0	0.0	0.0	0.0	0.086	
4.0	0.0	0.0	0.0	0.0	0.109	
5.0	0.0	0.0	0.0	0.0	0.105	
6.0	0.0	0.0	0.0	0.0	0.045	
7.0	0.0	0.0	0.0	0.0	0.01	
8.0	0.0	0.0	0.0	0.0	-0.016	
9.0	0.0	0.0	0.0	0.0	-0.061	
10.0	0.0	0.0	0.0	0.0	-0.057	
11.0	0.0	0.0	0.0	0.0	-0.051	
12.0	0.0	0.0	0.0	0.0	-0.045	
13.0	0.0	0.0	0.0	0.0	-0.038	
14.0	0.0	0.0	0.0	0.0	-0.019	
15.0	0.0	0.0	0.0	0.0	0.022	
0.0	0.0	0.0	0.0	0.0	0.022	
1.0	0.0	0.0	0.0	0.0	0.01	
2.0	0.0	0.0	0.0	0.0	0.019	
3.0	0.0	0.0	0.0	0.0	0.061	
4.0	0.0	0.0	0.0	0.0	0.051	
5.0	0.0	0.0	0.0	0.0	0.019	
6.0	0.0	0.0	0.0	0.0	-0.01	
7.0	0.0	0.0	0.0	0.0	-0.016	
8.0	0.0	0.0	0.0	0.0	-0.01	
9.0	0.0	0.0	0.0	0.0	-0.003	
10.0	0.0	0.0	0.0	0.0	0.003	
11.0	0.0	0.0	0.0	0.0	-0.016	
12.0	0.0	0.0	0.0	0.0	-0.01	
13.0	0.0	0.0	0.0	0.0	0.01	
14.0	0.0	0.0	0.0	0.0	0.013	
15.0	0.0	0.0	0.0	0.0	-0.022	
0.0	0.0	0.0	0.0	0.0	-0.022	
1.0	0.0	0.0	0.0	0.0	0.0	
2.0	0.0	0.0	0.0	0.0	0.083	
3.0	0.0	0.0	0.0	0.0	0.038	
4.0	0.0	0.0	0.0	0.0	-0.029	
5.0	0.0	0.0	0.0	0.0	0.064	
6.0	0.0	0.0	0.0	0.0	0.064	
7.0	0.0	0.0	0.0	0.0	0.013	
8.0	0.0	0.0	0.0	0.0	-0.08	
9.0	0.0	0.0	0.0	0.0	-0.125	
10.0	0.0	0.0	0.0	0.0	-0.045	
11.0	0.0	0.0	0.0	0.0	0.0	
12.0	0.0	0.0	0.0	0.0	-0.016	
13.0	0.0	0.0	0.0	0.0	-0.006	
14.0	0.0	0.0	0.0	0.0	0.019	
15.0	0.0	0.0	0.0	0.0	0.048	
0.0	0.0	0.0	0.0	0.0	-0.003	
1.0	0.0	0.0	0.0	0.0	-0.026	
2.0	0.0	0.0	0.0	0.0	-0.077	
3.0	0.0	0.0	0.0	0.0	-0.038	
4.0	0.0	0.0	0.0	0.0	-0.01	
5.0	0.0	0.0	0.0	0.0	0.013	
6.0	0.0	0.0	0.0	0.0	0.054	
7.0	0.0	0.0	0.0	0.0	0.134	
8.0	0.0	0.0	0.0	0.0	0.188	
9.0	0.0	0.0	0.0	0.0	0.163	
10.0	0.0	0.0	0.0	0.0	0.083	
11.0	0.0	0.0	0.0	0.0	0.048	
12.0	0.0	0.0	0.0	0.0	-0.048	
13.0	0.0	0.0	0.0	0.0	-0.128	
14.0	0.0	0.0	0.0	0.0	-0.096	
15.0	0.0	0.0	0.0	0.0	-0.105	
0.0	0.0	0.0	0.0	0.0	-0.141	
1.0	0.0	0.0	0.0	0.0	-0.083	
2.0	0.0	0.0	0.0	0.0	0.083	
3.0	0.0	0.0	0.0	0.0	0.15	
4.0	0.0	0.0	0.0	0.0	0.188	
5.0	0.0	0.0	0.0	0.0	0.077	
6.0	0.0	0.0	0.0	0.0	0.054	
7.0	0.0	0.0	0.0	0.0	0.073	
8.0	0.0	0.0	0.0	0.0	0.073	
9.0	0.0	0.0	0.0	0.0	-0.022	
10.0	0.0	0.0	0.0	0.0	-0.086	
11.0	0.0	0.0	0.0	0.0	-0.137	
12.0	0.0	0.0	0.0	0.0	-0.112	
13.0	0.0	0.0	0.0	0.0	-0.077	
14.0	0.0	0.0	0.0	0.0	-0.006	
15.0	0.0	0.0	0.0	0.0	0.003	
0.0	0.0	0.0	0.0	0.0	0.038	
1.0	0.0	0.0	0.0	0.0	0.026	
2.0	0.0	0.0	0.0	0.0	0.022	
3.0	0.0	0.0	0.0	0.0	0.022	
4.0	0.0	0.0	0.0	0.0	0.003	
5.0	0.0	0.0	0.0	0.0	-0.006	
6.0	0.0	0.0	0.0	0.0	-0.003	
7.0	0.0	0.0	0.0	0.0	0.013	
8.0	0.0	0.0	0.0	0.0	0.01	
9.0	0.0	0.0	0.0	0.0	0.006	
10.0	0.0	0.0	0.0	0.0	-0.006	
11.0	0.0	0.0	0.0	0.0	-0.01	
12.0	0.0	0.0	0.0	0.0	-0.006	
13.0	0.0	0.0	0.0	0.0	-0.013	
14.0	0.0	0.0	0.0	0.0	-0.022	
15.0	0.0	0.0	0.0	0.0	-0.022	
0.0	0.0	0.0	0.0	0.0	-0.006	
1.0	0.0	0.0	0.0	0.0	0.003	
2.0	0.0	0.0	0.0	0.0	0.022	
3.0	0.0	0.0	0.0	0.0	0.038	
4.0	0.0	0.0	0.0	0.0	-0.006	
5.0	0.0	0.0	0.0	0.0	-0.013	
6.0	0.0	0.0	0.0	0.0	0.016	
7.0	0.0	0.0	0.0	0.0	0.019	
8.0	0.0	0.0	0.0	0.0	0.019	
9.0	0.0	0.0	0.0	0.0	0.01	
10.0	0.0	0.0	0.0	0.0	-0.048	
11.0	0.0	0.0	0.0	0.0	-0.051	
12.0	0.0	0.0	0.0	0.0	0.0	
13.0	0.0	0.0	0.0	0.0	0.016	
14.0	0.0	0.0	0.0	0.0	-0.003	
15.0	0.0	0.0	0.0	0.0	0.038	
0.0	0.0	0.0	0.0	0.0	0.032	
1.0	0.0	0.0	0.0	0.0	0.035	
2.0	0.0	0.0	0.0	0.0	0.083	
3.0	0.0	0.0	0.0	0.0	-0.032	
4.0	0.0	0.0	0.0	0.0	-0.064	
5.0	0.0	0.0	0.0	0.0	-0.038	
6.0	0.0	0.0	0.0	0.0	0.067	
7.0	0.0	0.0	0.0	0.0	0.051	
8.0	0.0	0.0	0.0	0.0	0.054	
9.0	0.0	0.0	0.0	0.0	0.144	
10.0	0.0	0.0	0.0	0.0	0.15	
11.0	0.0	0.0	0.0	0.0	0.035	
12.0	0.0	0.0	0.0	0.0	-0.099	
13.0	0.0	0.0	0.0	0.0	-0.217	
14.0	0.0	0.0	0.0	0.0	-0.22	
15.0	0.0	0.0	0.0	0.0	-0.15	
0.0	0.0	0.0	0.0	0.0	-0.08	
1.0	0.0	0.0	0.0	0.0	0.003	
2.0	0.0	0.0	0.0	0.0	0.032	
3.0	0.0	0.0	0.0	0.0	0.0	
4.0	0.0	0.0	0.0	0.0	0.038	
5.0	0.0	0.0	0.0	0.0	0.083	
6.0	0.0	0.0	0.0	0.0	0.061	
7.0	0.0	0.0	0.0	0.0	0.089	
8.0	0.0	0.0	0.0	0.0	0.038	
9.0	0.0	0.0	0.0	0.0	-0.01	
10.0	0.0	0.0	0.0	0.0	0.0	
11.0	0.0	0.0	0.0	0.0	-0.003	
12.0	0.0	0.0	0.0	0.0	0.016	
13.0	0.0	0.0	0.0	0.0	0.035	
14.0	0.0	0.0	0.0	0.0	0.051	
15.0	0.0	0.0	0.0	0.0	0.048	
0.0	0.0	0.0	0.0	0.0	0.035	
1.0	0.0	0.0	0.0	0.0	0.003	
2.0	0.0	0.0	0.0	0.0	-0.016	
3.0	0.0	0.0	0.0	0.0	0.003	
4.0	0.0	0.0	0.0	0.0	0.032	
5.0	0.0	0.0	0.0	0.0	0.048	
6.0	0.0	0.0	0.0	0.0	0.022	
7.0	0.0	0.0	0.0	0.0	0.019	
8.0	0.0	0.0	0.0	0.0	0.032	
9.0	0.0	0.0	0.0	0.0	-0.026	
10.0	0.0	0.0	0.0	0.0	-0.054	
11.0	0.0	0.0	0.0	0.0	-0.054	
12.0	0.0	0.0	0.0	0.0	-0.093	
13.0	0.0	0.0	0.0	0.0	-0.064	
14.0	0.0	0.0	0.0	0.0	0.07	
15.0	0.0	0.0	0.0	0.0	0.048	
0.0	0.0	0.0	0.0	0.0	0.01	
1.0	0.0	0.0	0.0	0.0	-0.022	
2.0	0.0	0.0	0.0	0.0	-0.016	
3.0	0.0	0.0	0.0	0.0	-0.038	
4.0	0.0	0.0	0.0	0.0	-0.022	
5.0	0.0	0.0	0.0	0.0	-0.006	
6.0	0.0	0.0	0.0	0.0	0.006	
7.0	0.0	0.0	0.0	0.0	0.006	
8.0	0.0	0.0	0.0	0.0	0.051	
9.0	0.0	0.0	0.0	0.0	0.051	
10.0	0.0	0.0	0.0	0.0	0.045	
11.0	0.0	0.0	0.0	0.0	0.057	
12.0	0.0	0.0	0.0	0.0	0.038	
13.0	0.0	0.0	0.0	0.0	0.022	
14.0	0.0	0.0	0.0	0.0	-0.003	
15.0	0.0	0.0	0.0	0.0	-0.01	
0.0	0.0	0.0	0.0	0.0	-0.026	
1.0	0.0	0.0	0.0	0.0	-0.013	
2.0	0.0	0.0	0.0	0.0	0.013	
3.0	0.0	0.0	0.0	0.0	0.035	
4.0	0.0	0.0	0.0	0.0	0.013	
5.0	0.0	0.0	0.0	0.0	-0.003	
6.0	0.0	0.0	0.0	0.0	0.038	
7.0	0.0	0.0	0.0	0.0	0.057	
8.0	0.0	0.0	0.0	0.0	0.038	
9.0	0.0	0.0	0.0	0.0	0.01	
10.0	0.0	0.0	0.0	0.0	-0.032	
11.0	0.0	0.0	0.0	0.0	-0.051	
12.0	0.0	0.0	0.0	0.0	-0.042	
13.0	0.0	0.0	0.0	0.0	-0.048	
14.0	0.0	0.0	0.0	0.0	-0.064	
15.0	0.0	0.0	0.0	0.0	-0.07	
0.0	0.0	0.0	0.0	0.0	-0.022	
1.0	0.0	0.0	0.0	0.0	-0.022	
2.0	0.0	0.0	0.0	0.0	-0.029	
3.0	0.0	0.0	0.0	0.0	0.0	
4.0	0.0	0.0	0.0	0.0	0.032	
5.0	0.0	0.0	0.0	0.0	0.022	
6.0	0.0	0.0	0.0	0.0	0.073	
7.0	0.0	0.0	0.0	0.0	0.077	
8.0	0.0	0.0	0.0	0.0	0.089	
9.0	0.0	0.0	0.0	0.0	0.134	
10.0	0.0	0.0	0.0	0.0	0.201	
11.0	0.0	0.0	0.0	0.0	0.112	
12.0	0.0	0.0	0.0	0.0	0.0	
13.0	0.0	0.0	0.0	0.0	-0.029	
14.0	0.0	0.0	0.0	0.0	-0.051	
15.0	0.0	0.0	0.0	0.0	-0.073	
0.0	0.0	0.0	0.0	0.0	-0.067	
1.0	0.0	0.0	0.0	0.0	-0.128	
2.0	0.0	0.0	0.0	0.0	-0.125	
3.0	0.0	0.0	0.0	0.0	-0.121	
4.0	0.0	0.0	0.0	0.0	-0.115	
5.0	0.0	0.0	0.0	0.0	-0.038	
6.0	0.0	0.0	0.0	0.0	0.019	
7.0	0.0	0.0	0.0	0.0	0.019	
8.0	0.0	0.0	0.0	0.0	0.038	
9.0	0.0	0.0	0.0	0.0	0.003	
10.0	0.0	0.0	0.0	0.0	-0.019	
11.0	0.0	0.0	0.0	0.0	-0.038	
12.0	0.0	0.0	0.0	0.0	0.054	
13.0	0.0	0.0	0.0	0.0	0.048	
14.0	0.0	0.0	0.0	0.0	0.038	
15.0	0.0	0.0	0.0	0.0	0.07	
0.0	0.0	0.0	0.0	0.0	0.153	
1.0	0.0	0.0	0.0	0.0	0.176	
2.0	0.0	0.0	0.0	0.0	0.195	
3.0	0.0	0.0	0.0	0.0	0.089	
4.0	0.0	0.0	0.0	0.0	-0.054	
5.0	0.0	0.0	0.0	0.0	-0.08	
6.0	0.0	0.0	0.0	0.0	-0.067	
7.0	0.0	0.0	0.0	0.0	-0.019	
8.0	0.0	0.0	0.0	0.0	-0.013	
9.0	0.0	0.0	0.0	0.0	-0.038	
10.0	0.0	0.0	0.0	0.0	-0.064	
11.0	0.0	0.0	0.0	0.0	-0.073	
12.0	0.0	0.0	0.0	0.0	-0.064	
13.0	0.0	0.0	0.0	0.0	0.019	
14.0	0.0	0.0	0.0	0.0	0.105	
15.0	0.0	0.0	0.0	0.0	0.115	
0.0	0.0	0.0	0.0	0.0	0.022	
1.0	0.0	0.0	0.0	0.0	-0.013	
2.0	0.0	0.0	0.0	0.0	-0.01	
3.0	0.0	0.0	0.0	0.0	-0.073	
4.0	0.0	0.0	0.0	0.0	-0.067	
5.0	0.0	0.0	0.0	0.0	-0.019	
6.0	0.0	0.0	0.0	0.0	0.003	
7.0	0.0	0.0	0.0	0.0	-0.057	
8.0	0.0	0.0	0.0	0.0	-0.022	
9.0	0.0	0.0	0.0	0.0	-0.057	
10.0	0.0	0.0	0.0	0.0	-0.073	
11.0	0.0	0.0	0.0	0.0	-0.054	
12.0	0.0	0.0	0.0	0.0	-0.035	
13.0	0.0	0.0	0.0	0.0	0.022	
14.0	0.0	0.0	0.0	0.0	0.073	
15.0	0.0	0.0	0.0	0.0	0.105	
0.0	0.0	0.0	0.0	0.0	0.157	
1.0	0.0	0.0	0.0	0.0	0.224	
2.0	0.0	0.0	0.0	0.0	0.16	
3.0	0.0	0.0	0.0	0.0	0.096	
4.0	0.0	0.0	0.0	0.0	0.019	
5.0	0.0	0.0	0.0	0.0	-0.038	
6.0	0.0	0.0	0.0	0.0	-0.054	
7.0	0.0	0.0	0.0	0.0	-0.08	
8.0	0.0	0.0	0.0	0.0	-0.089	
9.0	0.0	0.0	0.0	0.0	-0.048	
10.0	0.0	0.0	0.0	0.0	-0.064	
11.0	0.0	0.0	0.0	0.0	-0.089	
12.0	0.0	0.0	0.0	0.0	-0.032	
13.0	0.0	0.0	0.0	0.0	-0.006	
14.0	0.0	0.0	0.0	0.0	-0.003	
15.0	0.0	0.0	0.0	0.0	0.006	
0.0	0.0	0.0	0.0	0.0	0.0	
1.0	0.0	0.0	0.0	0.0	0.029	
2.0	0.0	0.0	0.0	0.0	0.022	
3.0	0.0	0.0	0.0	0.0	-0.003	
4.0	0.0	0.0	0.0	0.0	0.026	
5.0	0.0	0.0	0.0	0.0	-0.013	
6.0	0.0	0.0	0.0	0.0	0.013	
7.0	0.0	0.0	0.0	0.0	-0.022	
8.0	0.0	0.0	0.0	0.0	-0.061	
9.0	0.0	0.0	0.0	0.0	-0.016	
10.0	0.0	0.0	0.0	0.0	-0.038	
11.0	0.0	0.0	0.0	0.0	0.019	
12.0	0.0	0.0	0.0	0.0	0.064	
13.0	0.0	0.0	0.0	0.0	0.042	
14.0	0.0	0.0	0.0	0.0	0.01	
15.0	0.0	0.0	0.0	0.0	0.064	
0.0	0.0	0.0	0.0	0.0	-0.003	
1.0	0.0	0.0	0.0	0.0	-0.048	
2.0	0.0	0.0	0.0	0.0	-0.102	
3.0	0.0	0.0	0.0	0.0	-0.115	
4.0	0.0	0.0	0.0	0.0	-0.042	
5.0	0.0	0.0	0.0	0.0	0.019	
6.0	0.0	0.0	0.0	0.0	0.109	
7.0	0.0	0.0	0.0	0.0	0.093	
8.0	0.0	0.0	0.0	0.0	0.045	
9.0	0.0	0.0	0.0	0.0	0.061	
10.0	0.0	0.0	0.0	0.0	0.029	
11.0	0.0	0.0	0.0	0.0	-0.057	
12.0	0.0	0.0	0.0	0.0	-0.086	
13.0	0.0	0.0	0.0	0.0	-0.054	
14.0	0.0	0.0	0.0	0.0	0.01	
15.0	0.0	0.0	0.0	0.0	0.026	
0.0	0.0	0.0	0.0	0.0	-0.016	
1.0	0.0	0.0	0.0	0.0	-0.016	
2.0	0.0	0.0	0.0	0.0	-0.01	
3.0	0.0	0.0	0.0	0.0	-0.022	
4.0	0.0	0.0	0.0	0.0	-0.003	
5.0	0.0	0.0	0.0	0.0	0.016	
6.0	0.0	0.0	0.0	0.0	0.013	
7.0	0.0	0.0	0.0	0.0	0.035	
8.0	0.0	0.0	0.0	0.0	0.006	
9.0	0.0	0.0	0.0	0.0	-0.022	
10.0	0.0	0.0	0.0	0.0	-0.042	
11.0	0.0	0.0	0.0	0.0	0.019	
12.0	0.0	0.0	0.0	0.0	0.125	
13.0	0.0	0.0	0.0	0.0	0.172	
14.0	0.0	0.0	0.0	0.0	0.137	
15.0	0.0	0.0	0.0	0.0	0.038	
0.0	0.0	0.0	0.0	0.0	-0.013	
1.0	0.0	0.0	0.0	0.0	-0.073	
2.0	0.0	0.0	0.0	0.0	-0.057	
3.0	0.0	0.0	0.0	0.0	-0.048	
4.0	0.0	0.0	0.0	0.0	-0.093	
5.0	0.0	0.0	0.0	0.0	0.013	
6.0	0.0	0.0	0.0	0.0	0.07	
7.0	0.0	0.0	0.0	0.0	0.016	
8.0	0.0	0.0	0.0	0.0	0.0	
9.0	0.0	0.0	0.0	0.0	-0.054	
10.0	0.0	0.0	0.0	0.0	-0.073	
11.0	0.0	0.0	0.0	0.0	-0.077	
12.0	0.0	0.0	0.0	0.0	-0.08	
13.0	0.0	0.0	0.0	0.0	-0.026	
14.0	0.0	0.0	0.0	0.0	0.0	
15.0	0.0	0.0	0.0	0.0	0.089	
0.0	0.0	0.0	0.0	0.0	0.131	
1.0	0.0	0.0	0.0	0.0	0.128	
2.0	0.0	0.0	0.0	0.0	0.125	
3.0	0.0	0.0	0.0	0.0	0.109	
4.0	0.0	0.0	0.0	0.0	0.109	
5.0	0.0	0.0	0.0	0.0	0.064	
6.0	0.0	0.0	0.0	0.0	0.048	
7.0	0.0	0.0	0.0	0.0	-0.029	
8.0	0.0	0.0	0.0	0.0	-0.121	
9.0	0.0	0.0	0.0	0.0	-0.109	
10.0	0.0	0.0	0.0	0.0	-0.067	
11.0	0.0	0.0	0.0	0.0	-0.073	
12.0	0.0	0.0	0.0	0.0	-0.026	
13.0	0.0	0.0	0.0	0.0	-0.019	
14.0	0.0	0.0	0.0	0.0	-0.089	
15.0	0.0	0.0	0.0	0.0	-0.08	
0.0	0.0	0.0	0.0	0.0	-0.057	
1.0	0.0	0.0	0.0	0.0	-0.01	
2.0	0.0	0.0	0.0	0.0	0.006	
3.0	0.0	0.0	0.0	0.0	0.042	
4.0	0.0	0.0	0.0	0.0	0.077	
5.0	0.0	0.0	0.0	0.0	0.08	
6.0	0.0	0.0	0.0	0.0	0.045	
7.0	0.0	0.0	0.0	0.0	-0.029	
8.0	0.0	0.0	0.0	0.0	-0.038	
9.0	0.0	0.0	0.0	0.0	-0.045	
10.0	0.0	0.0	0.0	0.0	-0.035	
11.0	0.0	0.0	0.0	0.0	-0.003	
12.0	0.0	0.0	0.0	0.0	0.061	
13.0	0.0	0.0	0.0	0.0	0.086	
14.0	0.0	0.0	0.0	0.0	0.112	
15.0	0.0	0.0	0.0	0.0	0.096	
0.0	0.0	0.0	0.0	0.0	0.07	
1.0	0.0	0.0	0.0	0.0	0.026	
2.0	0.0	0.0	0.0	0.0	0.026	
3.0	0.0	0.0	0.0	0.0	-0.064	
4.0	0.0	0.0	0.0	0.0	-0.182	
5.0	0.0	0.0	0.0	0.0	-0.188	
6.0	0.0	0.0	0.0	0.0	-0.141	
7.0	0.0	0.0	0.0	0.0	-0.067	
8.0	0.0	0.0	0.0	0.0	0.064	
9.0	0.0	0.0	0.0	0.0	0.102	
10.0	0.0	0.0	0.0	0.0	0.169	
11.0	0.0	0.0	0.0	0.0	0.102	
12.0	0.0	0.0	0.0	0.0	0.038	
13.0	0.0	0.0	0.0	0.0	0.013	
14.0	0.0	0.0	0.0	0.0	0.0	
15.0	0.0	0.0	0.0	0.0	-0.013	
0.0	0.0	0.0	0.0	0.0	-0.051	
1.0	0.0	0.0	0.0	0.0	-0.032	
2.0	0.0	0.0	0.0	0.0	0.019	
3.0	0.0	0.0	0.0	0.0	-0.026	
4.0	0.0	0.0	0.0	0.0	-0.032	
5.0	0.0	0.0	0.0	0.0	-0.01	
6.0	0.0	0.0	0.0	0.0	0.045	
7.0	0.0	0.0	0.0	0.0	0.038	
8.0	0.0	0.0	0.0	0.0	-0.003	
9.0	0.0	0.0	0.0	0.0	-0.048	
10.0	0.0	0.0	0.0	0.0	-0.048	
11.0	0.0	0.0	0.0	0.0	0.01	
12.0	0.0	0.0	0.0	0.0	0.013	
13.0	0.0	0.0	0.0	0.0	0.0	
14.0	0.0	0.0	0.0	0.0	-0.006	
15.0	0.0	0.0	0.0	0.0	0.045	
0.0	0.0	0.0	0.0	0.0	-0.073	
1.0	0.0	0.0	0.0	0.0	-0.067	
2.0	0.0	0.0	0.0	0.0	-0.105	
3.0	0.0	0.0	0.0	0.0	-0.102	
4.0	0.0	0.0	0.0	0.0	0.003	
5.0	0.0	0.0	0.0	0.0	0.061	
6.0	0.0	0.0	0.0	0.0	0.045	
7.0	0.0	0.0	0.0	0.0	0.073	
8.0	0.0	0.0	0.0	0.0	0.169	
9.0	0.0	0.0	0.0	0.0	0.24	
10.0	0.0	0.0	0.0	0.0	0.246	
11.0	0.0	0.0	0.0	0.0	0.166	
12.0	0.0	0.0	0.0	0.0	0.013	
13.0	0.0	0.0	0.0	0.0	-0.08	
14.0	0.0	0.0	0.0	0.0	-0.141	
15.0	0.0	0.0	0.0	0.0	-0.172	
0.0	0.0	0.0	0.0	0.0	-0.131	
1.0	0.0	0.0	0.0	0.0	-0.099	
2.0	0.0	0.0	0.0	0.0	-0.077	
3.0	0.0	0.0	0.0	0.0	-0.073	
4.0	0.0	0.0	0.0	0.0	-0.054	
5.0	0.0	0.0	0.0	0.0	0.01	
6.0	0.0	0.0	0.0	0.0	0.07	
7.0	0.0	0.0	0.0	0.0	0.003	
8.0	0.0	0.0	0.0	0.0	-0.026	
9.0	0.0	0.0	0.0	0.0	0.019	
10.0	0.0	0.0	0.0	0.0	0.064	
11.0	0.0	0.0	0.0	0.0	0.057	
12.0	0.0	0.0	0.0	0.0	0.054	
13.0	0.0	0.0	0.0	0.0	0.08	
14.0	0.0	0.0	0.0	0.0	0.102	
15.0	0.0	0.0	0.0	0.0	0.07	
0.0	0.0	0.0	0.0	0.0	0.048	
1.0	0.0	0.0	0.0	0.0	0.003	
2.0	0.0	0.0	0.0	0.0	-0.038	
3.0	0.0	0.0	0.0	0.0	-0.026	
4.0	0.0	0.0	0.0	0.0	-0.003	
5.0	0.0	0.0	0.0	0.0	-0.019	
6.0	0.0	0.0	0.0	0.0	-0.042	
7.0	0.0	0.0	0.0	0.0	-0.045	
8.0	0.0	0.0	0.0	0.0	-0.019	
9.0	0.0	0.0	0.0	0.0	-0.019	
10.0	0.0	0.0	0.0	0.0	0.022	
11.0	0.0	0.0	0.0	0.0	0.026	
12.0	0.0	0.0	0.0	0.0	-0.013	
13.0	0.0	0.0	0.0	0.0	-0.016	
14.0	0.0	0.0	0.0	0.0	-0.051	
15.0	0.0	0.0	0.0	0.0	-0.089	
0.0	0.0	0.0	0.0	0.0	-0.086	
1.0	0.0	0.0	0.0	0.0	-0.051	
2.0	0.0	0.0	0.0	0.0	-0.035	
3.0	0.0	0.0	0.0	0.0	0.038	
4.0	0.0	0.0	0.0	0.0	0.064	
5.0	0.0	0.0	0.0	0.0	0.077	
6.0	0.0	0.0	0.0	0.0	0.057	
7.0	0.0	0.0	0.0	0.0	0.102	
8.0	0.0	0.0	0.0	0.0	0.003	
9.0	0.0	0.0	0.0	0.0	-0.026	
10.0	0.0	0.0	0.0	0.0	-0.051	
11.0	0.0	0.0	0.0	0.0	-0.073	
12.0	0.0	0.0	0.0	0.0	-0.045	
13.0	0.0	0.0	0.0	0.0	-0.042	
14.0	0.0	0.0	0.0	0.0	0.003	
15.0	0.0	0.0	0.0	0.0	-0.006	
0.0	0.0	0.0	0.0	0.0	0.051	
1.0	0.0	0.0	0.0	0.0	0.054	
2.0	0.0	0.0	0.0	0.0	0.131	
3.0	0.0	0.0	0.0	0.0	0.073	
4.0	0.0	0.0	0.0	0.0	-0.08	
5.0	0.0	0.0	0.0	0.0	-0.061	
6.0	0.0	0.0	0.0	0.0	-0.035	
7.0	0.0	0.0	0.0	0.0	-0.048	
8.0	0.0	0.0	0.0	0.0	-0.026	
9.0	0.0	0.0	0.0	0.0	-0.045	
10.0	0.0	0.0	0.0	0.0	0.0	
11.0	0.0	0.0	0.0	0.0	0.077	
12.0	0.0	0.0	0.0	0.0	0.134	
13.0	0.0	0.0	0.0	0.0	0.157	
14.0	0.0	0.0	0.0	0.0	0.093	
15.0	0.0	0.0	0.0	0.0	0.061	
0.0	0.0	0.0	0.0	0.0	0.048	
1.0	0.0	0.0	0.0	0.0	-0.029	
2.0	0.0	0.0	0.0	0.0	-0.061	
3.0	0.0	0.0	0.0	0.0	-0.003	
4.0	0.0	0.0	0.0	0.0	0.006	
5.0	0.0	0.0	0.0	0.0	-0.016	
6.0	0.0	0.0	0.0	0.0	0.026	
7.0	0.0	0.0	0.0	0.0	0.061	
8.0	0.0	0.0	0.0	0.0	-0.022	
9.0	0.0	0.0	0.0	0.0	-0.08	
10.0	0.0	0.0	0.0	0.0	-0.112	
11.0	0.0	0.0	0.0	0.0	-0.093	
12.0	0.0	0.0	0.0	0.0	-0.016	
13.0	0.0	0.0	0.0	0.0	-0.057	
14.0	0.0	0.0	0.0	0.0	-0.073	
15.0	0.0	0.0	0.0	0.0	-0.013	
0.0	0.0	0.0	0.0	0.0	0.077	
1.0	0.0	0.0	0.0	0.0	0.105	
2.0	0.0	0.0	0.0	0.0	0.121	
3.0	0.0	0.0	0.0	0.0	0.054	
4.0	0.0	0.0	0.0	0.0	-0.006	
5.0	0.0	0.0	0.0	0.0	0.006	
6.0	0.0	0.0	0.0	0.0	0.064	
7.0	0.0	0.0	0.0	0.0	0.042	
8.0	0.0	0.0	0.0	0.0	0.019	
9.0	0.0	0.0	0.0	0.0	-0.038	
10.0	0.0	0.0	0.0	0.0	-0.048	
11.0	0.0	0.0	0.0	0.0	-0.054	
12.0	0.0	0.0	0.0	0.0	-0.045	
13.0	0.0	0.0	0.0	0.0	0.01	
14.0	0.0	0.0	0.0	0.0	0.016	
15.0	0.0	0.0	0.0	0.0	-0.01	
0.0	0.0	0.0	0.0	0.0	-0.006	
1.0	0.0	0.0	0.0	0.0	-0.035	
2.0	0.0	0.0	0.0	0.0	-0.051	
3.0	0.0	0.0	0.0	0.0	-0.016	
4.0	0.0	0.0	0.0	0.0	0.01	
5.0	0.0	0.0	0.0	0.0	0.042	
6.0	0.0	0.0	0.0	0.0	0.077	
7.0	0.0	0.0	0.0	0.0	0.096	
8.0	0.0	0.0	0.0	0.0	0.077	
9.0	0.0	0.0	0.0	0.0	0.045	
10.0	0.0	0.0	0.0	0.0	0.0	
11.0	0.0	0.0	0.0	0.0	-0.022	
12.0	0.0	0.0	0.0	0.0	-0.013	
13.0	0.0	0.0	0.0	0.0	-0.013	
14.0	0.0	0.0	0.0	0.0	0.0	
15.0	0.0	0.0	0.0	0.0	-0.016	
0.0	0.0	0.0	0.0	0.0	-0.042	
1.0	0.0	0.0	0.0	0.0	-0.029	
2.0	0.0	0.0	0.0	0.0	-0.038	
3.0	0.0	0.0	0.0	0.0	-0.019	
4.0	0.0	0.0	0.0	0.0	-0.013	
5.0	0.0	0.0	0.0	0.0	0.042	
6.0	0.0	0.0	0.0	0.0	0.038	
7.0	0.0	0.0	0.0	0.0	0.073	
8.0	0.0	0.0	0.0	0.0	0.163	
9.0	0.0	0.0	0.0	0.0	0.01	
10.0	0.0	0.0	0.0	0.0	-0.147	
11.0	0.0	0.0	0.0	0.0	-0.182	
12.0	0.0	0.0	0.0	0.0	-0.096	
13.0	0.0	0.0	0.0	0.0	-0.032	
14.0	0.0	0.0	0.0	0.0	0.019	
15.0	0.0	0.0	0.0	0.0	0.102	
0.0	0.0	0.0	0.0	0.0	0.125	
1.0	0.0	0.0	0.0	0.0	0.08	
2.0	0.0	0.0	0.0	0.0	0.099	
3.0	0.0	0.0	0.0	0.0	0.089	
4.0	0.0	0.0	0.0	0.0	0.006	
5.0	0.0	0.0	0.0	0.0	-0.029	
6.0	0.0	0.0	0.0	0.0	-0.118	
7.0	0.0	0.0	0.0	0.0	-0.144	
8.0	0.0	0.0	0.0	0.0	0.003	
9.0	0.0	0.0	0.0	0.0	0.013	
10.0	0.0	0.0	0.0	0.0	0.003	
11.0	0.0	0.0	0.0	0.0	0.064	
12.0	0.0	0.0	0.0	0.0	-0.01	
13.0	0.0	0.0	0.0	0.0	0.003	
14.0	0.0	0.0	0.0	0.0	-0.054	
15.0	0.0	0.0	0.0	0.0	-0.026	
0.0	0.0	0.0	0.0	0.0	0.019	
1.0	0.0	0.0	0.0	0.0	0.172	
2.0	0.0	0.0	0.0	0.0	0.128	
3.0	0.0	0.0	0.0	0.0	0.144	
4.0	0.0	0.0	0.0	0.0	0.057	
5.0	0.0	0.0	0.0	0.0	-0.048	
6.0	0.0	0.0	0.0	0.0	-0.073	
7.0	0.0	0.0	0.0	0.0	-0.08	
8.0	0.0	0.0	0.0	0.0	-0.067	
9.0	0.0	0.0	0.0	0.0	-0.051	
10.0	0.0	0.0	0.0	0.0	-0.048	
11.0	0.0	0.0	0.0	0.0	-0.038	
12.0	0.0	0.0	0.0	0.0	-0.006	
13.0	0.0	0.0	0.0	0.0	-0.026	
14.0	0.0	0.0	0.0	0.0	-0.026	
15.0	0.0	0.0	0.0	0.0	-0.016	
0.0	0.0	0.0	0.0	0.0	-0.026	
1.0	0.0	0.0	0.0	0.0	-0.003	
2.0	0.0	0.0	0.0	0.0	0.022	
3.0	0.0	0.0	0.0	0.0	0.045	
4.0	0.0	0.0	0.0	0.0	0.064	
5.0	0.0	0.0	0.0	0.0	0.048	
6.0	0.0	0.0	0.0	0.0	0.048	
7.0	0.0	0.0	0.0	0.0	0.057	
8.0	0.0	0.0	0.0	0.0	0.089	
9.0	0.0	0.0	0.0	0.0	0.032	
10.0	0.0	0.0	0.0	0.0	0.006	
11.0	0.0	0.0	0.0	0.0	-0.042	
12.0	0.0	0.0	0.0	0.0	-0.054	
13.0	0.0	0.0	0.0	0.0	-0.067	
14.0	0.0	0.0	0.0	0.0	-0.086	
15.0	0.0	0.0	0.0	0.0	-0.067	
0.0	0.0	0.0	0.0	0.0	-0.032	
1.0	0.0	0.0	0.0	0.0	0.016	
2.0	0.0	0.0	0.0	0.0	0.057	
3.0	0.0	0.0	0.0	0.0	0.089	
4.0	0.0	0.0	0.0	0.0	0.096	
5.0	0.0	0.0	0.0	0.0	0.102	
6.0	0.0	0.0	0.0	0.0	0.051	
7.0	0.0	0.0	0.0	0.0	-0.013	
8.0	0.0	0.0	0.0	0.0	-0.038	
9.0	0.0	0.0	0.0	0.0	-0.045	
10.0	0.0	0.0	0.0	0.0	-0.035	
11.0	0.0	0.0	0.0	0.0	-0.01	
12.0	0.0	0.0	0.0	0.0	-0.003	
13.0	0.0	0.0	0.0	0.0	-0.003	
14.0	0.0	0.0	0.0	0.0	0.019	
15.0	0.0	0.0	0.0	0.0	0.003	
0.0	0.0	0.0	0.0	0.0	-0.016	
1.0	0.0	0.0	0.0	0.0	-0.022	
2.0	0.0	0.0	0.0	0.0	-0.01	
3.0	0.0	0.0	0.0	0.0	-0.003	
4.0	0.0	0.0	0.0	0.0	0.006	
5.0	0.0	0.0	0.0	0.0	-0.016	
6.0	0.0	0.0	0.0	0.0	-0.038	
7.0	0.0	0.0	0.0	0.0	-0.013	
8.0	0.0	0.0	0.0	0.0	-0.006	
9.0	0.0	0.0	0.0	0.0	0.006	
10.0	0.0	0.0	0.0	0.0	0.013	
11.0	0.0	0.0	0.0	0.0	0.016	
12.0	0.0	0.0	0.0	0.0	0.013	
13.0	0.0	0.0	0.0	0.0	0.013	
14.0	0.0	0.0	0.0	0.0	0.013	
15.0	0.0	0.0	0.0	0.0	0.01	
0.0	0.0	0.0	0.0	0.0	0.0	
1.0	0.0	0.0	0.0	0.0	-0.013	
2.0	0.0	0.0	0.0	0.0	-0.032	
3.0	0.0	0.0	0.0	0.0	-0.022	
4.0	0.0	0.0	0.0	0.0	-0.006	
5.0	0.0	0.0	0.0	0.0	0.016	
6.0	0.0	0.0	0.0	0.0	0.045	
7.0	0.0	0.0	0.0	0.0	0.045	
8.0	0.0	0.0	0.0	0.0	0.038	
9.0	0.0	0.0	0.0	0.0	0.051	
10.0	0.0	0.0	0.0	0.0	0.022	
11.0	0.0	0.0	0.0	0.0	0.01	
12.0	0.0	0.0	0.0	0.0	0.01	
13.0	0.0	0.0	0.0	0.0	-0.022	
14.0	0.0	0.0	0.0	0.0	-0.013	
15.0	0.0	0.0	0.0	0.0	0.01	
0.0	0.0	0.0	0.0	0.0	0.003	
1.0	0.0	0.0	0.0	0.0	0.006	
2.0	0.0	0.0	0.0	0.0	-0.006	
3.0	0.0	0.0	0.0	0.0	0.003	
4.0	0.0	0.0	0.0	0.0	0.019	
5.0	0.0	0.0	0.0	0.0	0.022	
6.0	0.0	0.0	0.0	0.0	0.019	
7.0	0.0	0.0	0.0	0.0	-0.003	
8.0	0.0	0.0	0.0	0.0	-0.01	
9.0	0.0	0.0	0.0	0.0	-0.006	
10.0	0.0	0.0	0.0	0.0	0.0	
11.0	0.0	0.0	0.0	0.0	0.0	
12.0	0.0	0.0	0.0	0.0	-0.016	
13.0	0.0	0.0	0.0	0.0	-0.01	
14.0	0.0	0.0	0.0	0.0	-0.006	
15.0	0.0	0.0	0.0	0.0	0.0	
0.0	0.0	0.0	0.0	0.0	0.0	
1.0	0.0	0.0	0.0	0.0	0.006	
2.0	0.0	0.0	0.0	0.0	0.022	
3.0	0.0	0.0	0.0	0.0	0.022	
4.0	0.0	0.0	0.0	0.0	0.019	
5.0	0.0	0.0	0.0	0.0	0.006	
6.0	0.0	0.0	0.0	0.0	0.0	
7.0	0.0	0.0	0.0	0.0	0.003	
8.0	0.0	0.0	0.0	0.0	0.003	
9.0	0.0	0.0	0.0	0.0	-0.003	
10.0	0.0	0.0	0.0	0.0	0.006	
11.0	0.0	0.0	0.0	0.0	0.01	
12.0	0.0	0.0	0.0	0.0	0.022	
13.0	0.0	0.0	0.0	0.0	0.0	
14.0	0.0	0.0	0.0	0.0	-0.01	
15.0	0.0	0.0	0.0	0.0	-0.006	
0.0	0.0	0.0	0.0	0.0	-0.01	
1.0	0.0	0.0	0.0	0.0	-0.019	
2.0	0.0	0.0	0.0	0.0	-0.026	
3.0	0.0	0.0	0.0	0.0	-0.022	
4.0	0.0	0.0	0.0	0.0	-0.006	
5.0	0.0	0.0	0.0	0.0	0.003	
6.0	0.0	0.0	0.0	0.0	0.016	
7.0	0.0	0.0	0.0	0.0	0.022	
8.0	0.0	0.0	0.0	0.0	0.054	
9.0	0.0	0.0	0.0	0.0	0.038	
10.0	0.0	0.0	0.0	0.0	0.019	
11.0	0.0	0.0	0.0	0.0	0.029	
12.0	0.0	0.0	0.0	0.0	0.01	
13.0	0.0	0.0	0.0	0.0	-0.013	
14.0	0.0	0.0	0.0	0.0	-0.013	
15.0	0.0	0.0	0.0	0.0	-0.013	
0.0	0.0	0.0	0.0	0.0	-0.003	
1.0	0.0	0.0	0.0	0.0	0.003	
2.0	0.0	0.0	0.0	0.0	0.0	
3.0	0.0	0.0	0.0	0.0	0.006	
4.0	0.0	0.0	0.0	0.0	0.01	
5.0	0.0	0.0	0.0	0.0	0.0	
6.0	0.0	0.0	0.0	0.0	-0.013	
7.0	0.0	0.0	0.0	0.0	-0.006	
8.0	0.0	0.0	0.0	0.0	0.0	
9.0	0.0	0.0	0.0	0.0	0.006	
10.0	0.0	0.0	0.0	0.0	0.0	
11.0	0.0	0.0	0.0	0.0	-0.003	
12.0	0.0	0.0	0.0	0.0	-0.013	
13.0	0.0	0.0	0.0	0.0	-0.013	
14.0	0.0	0.0	0.0	0.0	0.003	
15.0	0.0	0.0	0.0	0.0	0.016	
0.0	0.0	0.0	0.0	0.0	0.013	
1.0	0.0	0.0	0.0	0.0	0.0	
2.0	0.0	0.0	0.0	0.0	0.0	
3.0	0.0	0.0	0.0	0.0	0.006	
4.0	0.0	0.0	0.0	0.0	0.022	
5.0	0.0	0.0	0.0	0.0	0.032	
6.0	0.0	0.0	0.0	0.0	0.026	
7.0	0.0	0.0	0.0	0.0	0.01	
8.0	0.0	0.0	0.0	0.0	0.01	
9.0	0.0	0.0	0.0	0.0	-0.003	
10.0	0.0	0.0	0.0	0.0	-0.003	
11.0	0.0	0.0	0.0	0.0	0.003	
12.0	0.0	0.0	0.0	0.0	0.01	
13.0	0.0	0.0	0.0	0.0	0.003	
14.0	0.0	0.0	0.0	0.0	0.0	
15.0	0.0	0.0	0.0	0.0	0.0	
0.0	0.0	0.0	0.0	0.0	-0.013	
1.0	0.0	0.0	0.0	0.0	-0.003	
2.0	0.0	0.0	0.0	0.0	0.003	
3.0	0.0	0.0	0.0	0.0	0.003	
4.0	0.0	0.0	0.0	0.0	0.003	
5.0	0.0	0.0	0.0	0.0	0.016	
6.0	0.0	0.0	0.0	0.0	0.006	
7.0	0.0	0.0	0.0	0.0	0.013	
8.0	0.0	0.0	0.0	0.0	0.0	
9.0	0.0	0.0	0.0	0.0	-0.013	
10.0	0.0	0.0	0.0	0.0	-0.003	
11.0	0.0	0.0	0.0	0.0	-0.01	
12.0	0.0	0.0	0.0	0.0	-0.019	
13.0	0.0	0.0	0.0	0.0	-0.013	
14.0	0.0	0.0	0.0	0.0	-0.003	
15.0	0.0	0.0	0.0	0.0	-0.003	
0.0	0.0	0.0	0.0	0.0	-0.006	
1.0	0.0	0.0	0.0	0.0	0.006	
2.0	0.0	0.0	0.0	0.0	0.01	
3.0	0.0	0.0	0.0	0.0	0.01	
4.0	0.0	0.0	0.0	0.0	0.006	
5.0	0.0	0.0	0.0	0.0	0.003	
6.0	0.0	0.0	0.0	0.0	0.013	
7.0	0.0	0.0	0.0	0.0	0.016	
8.0	0.0	0.0	0.0	0.0	0.029	
9.0	0.0	0.0	0.0	0.0	0.035	
10.0	0.0	0.0	0.0	0.0	0.032	
11.0	0.0	0.0	0.0	0.0	0.013	
12.0	0.0	0.0	0.0	0.0	0.003	
13.0	0.0	0.0	0.0	0.0	0.003	
14.0	0.0	0.0	0.0	0.0	0.013	
15.0	0.0	0.0	0.0	0.0	0.003	
0.0	0.0	0.0	0.0	0.0	-0.003	
1.0	0.0	0.0	0.0	0.0	-0.013	
2.0	0.0	0.0	0.0	0.0	-0.01	
3.0	0.0	0.0	0.0	0.0	-0.029	
4.0	0.0	0.0	0.0	0.0	-0.032	
5.0	0.0	0.0	0.0	0.0	-0.022	
6.0	0.0	0.0	0.0	0.0	-0.01	
7.0	0.0	0.0	0.0	0.0	-0.006	
8.0	0.0	0.0	0.0	0.0	0.01	
9.0	0.0	0.0	0.0	0.0	0.026	
10.0	0.0	0.0	0.0	0.0	0.029	
11.0	0.0	0.0	0.0	0.0	0.035	
12.0	0.0	0.0	0.0	0.0	0.048	
13.0	0.0	0.0	0.0	0.0	0.051	
14.0	0.0	0.0	0.0	0.0	0.029	
15.0	0.0	0.0	0.0	0.0	0.0	
0.0	0.0	0.0	0.0	0.0	-0.006	
1.0	0.0	0.0	0.0	0.0	0.003	
2.0	0.0	0.0	0.0	0.0	0.0	
3.0	0.0	0.0	0.0	0.0	-0.003	
4.0	0.0	0.0	0.0	0.0	-0.003	
5.0	0.0	0.0	0.0	0.0	-0.019	
6.0	0.0	0.0	0.0	0.0	-0.003	
7.0	0.0	0.0	0.0	0.0	-0.003	
8.0	0.0	0.0	0.0	0.0	0.0	
9.0	0.0	0.0	0.0	0.0	0.0	
10.0	0.0	0.0	0.0	0.0	0.006	
11.0	0.0	0.0	0.0	0.0	0.016	
12.0	0.0	0.0	0.0	0.0	0.006	
13.0	0.0	0.0	0.0	0.0	0.003	
14.0	0.0	0.0	0.0	0.0	0.013	
15.0	0.0	0.0	0.0	0.0	0.01	
0.0	0.0	0.0	0.0	0.0	0.019	
1.0	0.0	0.0	0.0	0.0	0.022	
2.0	0.0	0.0	0.0	0.0	0.029	
3.0	0.0	0.0	0.0	0.0	0.01	
4.0	0.0	0.0	0.0	0.0	0.01	
5.0	0.0	0.0	0.0	0.0	0.006	
6.0	0.0	0.0	0.0	0.0	0.006	
7.0	0.0	0.0	0.0	0.0	0.0	
8.0	0.0	0.0	0.0	0.0	-0.006	
9.0	0.0	0.0	0.0	0.0	-0.003	
10.0	0.0	0.0	0.0	0.0	0.0	
11.0	0.0	0.0	0.0	0.0	-0.003	
12.0	0.0	0.0	0.0	0.0	0.0	
13.0	0.0	0.0	0.0	0.0	0.0	
14.0	0.0	0.0	0.0	0.0	0.013	
15.0	0.0	0.0	0.0	0.0	0.01	
0.0	0.0	0.0	0.0	0.0	0.006	
1.0	0.0	0.0	0.0	0.0	-0.006	
2.0	0.0	0.0	0.0	0.0	0.0	
3.0	0.0	0.0	0.0	0.0	0.01	
4.0	0.0	0.0	0.0	0.0	0.006	
5.0	0.0	0.0	0.0	0.0	0.013	
6.0	0.0	0.0	0.0	0.0	0.01	
7.0	0.0	0.0	0.0	0.0	0.003	
8.0	0.0	0.0	0.0	0.0	0.003	
9.0	0.0	0.0	0.0	0.0	-0.003	
10.0	0.0	0.0	0.0	0.0	-0.003	
11.0	0.0	0.0	0.0	0.0	-0.01	
12.0	0.0	0.0	0.0	0.0	-0.013	
13.0	0.0	0.0	0.0	0.0	-0.01	
14.0	0.0	0.0	0.0	0.0	0.003	
15.0	0.0	0.0	0.0	0.0	0.013	
0.0	0.0	0.0	0.0	0.0	0.022	
1.0	0.0	0.0	0.0	0.0	0.022	
2.0	0.0	0.0	0.0	0.0	0.029	
3.0	0.0	0.0	0.0	0.0	0.022	
4.0	0.0	0.0	0.0	0.0	0.006	
5.0	0.0	0.0	0.0	0.0	-0.003	
6.0	0.0	0.0	0.0	0.0	-0.013	
7.0	0.0	0.0	0.0	0.0	0.003	
8.0	0.0	0.0	0.0	0.0	0.003	
9.0	0.0	0.0	0.0	0.0	0.006	
10.0	0.0	0.0	0.0	0.0	0.029	
11.0	0.0	0.0	0.0	0.0	0.048	
12.0	0.0	0.0	0.0	0.0	0.026	
13.0	0.0	0.0	0.0	0.0	0.019	
14.0	0.0	0.0	0.0	0.0	0.01	
15.0	0.0	0.0	0.0	0.0	0.006	
0.0	0.0	0.0	0.0	0.0	-0.019	
1.0	0.0	0.0	0.0	0.0	-0.029	
2.0	0.0	0.0	0.0	0.0	-0.038	
3.0	0.0	0.0	0.0	0.0	-0.032	
4.0	0.0	0.0	0.0	0.0	-0.029	
5.0	0.0	0.0	0.0	0.0	-0.026	
6.0	0.0	0.0	0.0	0.0	-0.016	
7.0	0.0	0.0	0.0	0.0	-0.01	
8.0	0.0	0.0	0.0	0.0	0.013	
9.0	0.0	0.0	0.0	0.0	0.022	
10.0	0.0	0.0	0.0	0.0	0.019	
11.0	0.0	0.0	0.0	0.0	0.003	
12.0	0.0	0.0	0.0	0.0	0.006	
13.0	0.0	0.0	0.0	0.0	0.013	
14.0	0.0	0.0	0.0	0.0	0.022	
15.0	0.0	0.0	0.0	0.0	0.013	
0.0	0.0	0.0	0.0	0.0	0.0	
1.0	0.0	0.0	0.0	0.0	0.01	
2.0	0.0	0.0	0.0	0.0	0.003	
3.0	0.0	0.0	0.0	0.0	0.003	
4.0	0.0	0.0	0.0	0.0	0.0	
5.0	0.0	0.0	0.0	0.0	0.0	
6.0	0.0	0.0	0.0	0.0	0.022	
7.0	0.0	0.0	0.0	0.0	0.026	
8.0	0.0	0.0	0.0	0.0	0.026	
9.0	0.0	0.0	0.0	0.0	0.01	
10.0	0.0	0.0	0.0	0.0	0.006	
11.0	0.0	0.0	0.0	0.0	0.01	
12.0	0.0	0.0	0.0	0.0	0.0	
13.0	0.0	0.0	0.0	0.0	-0.019	
14.0	0.0	0.0	0.0	0.0	-0.019	
15.0	0.0	0.0	0.0	0.0	-0.01	
0.0	0.0	0.0	0.0	0.0	0.003	
1.0	0.0	0.0	0.0	0.0	0.013	
2.0	0.0	0.0	0.0	0.0	0.01	
3.0	0.0	0.0	0.0	0.0	0.006	
4.0	0.0	0.0	0.0	0.0	0.006	
5.0	0.0	0.0	0.0	0.0	0.0	
6.0	0.0	0.0	0.0	0.0	0.003	
7.0	0.0	0.0	0.0	0.0	0.01	
8.0	0.0	0.0	0.0	0.0	0.013	
9.0	0.0	0.0	0.0	0.0	0.01	
10.0	0.0	0.0	0.0	0.0	0.01	
11.0	0.0	0.0	0.0	0.0	0.01	
12.0	0.0	0.0	0.0	0.0	0.013	
13.0	0.0	0.0	0.0	0.0	-0.003	
14.0	0.0	0.0	0.0	0.0	-0.006	
15.0	0.0	0.0	0.0	0.0	-0.003	
0.0	0.0	0.0	0.0	0.0	0.0	
1.0	0.0	0.0	0.0	0.0	0.0	
2.0	0.0	0.0	0.0	0.0	-0.006	
3.0	0.0	0.0	0.0	0.0	-0.003	
4.0	0.0	0.0	0.0	0.0	-0.006	
5.0	0.0	0.0	0.0	0.0	-0.006	
6.0	0.0	0.0	0.0	0.0	-0.003	
7.0	0.0	0.0	0.0	0.0	-0.003	
8.0	0.0	0.0	0.0	0.0	0.0	
9.0	0.0	0.0	0.0	0.0	0.006	
10.0	0.0	0.0	0.0	0.0	0.0	
11.0	0.0	0.0	0.0	0.0	-0.003	
12.0	0.0	0.0	0.0	0.0	-0.01	
13.0	0.0	0.0	0.0	0.0	-0.013	
14.0	0.0	0.0	0.0	0.0	-0.01	
15.0	0.0	0.0	0.0	0.0	0.006	
0.0	0.0	0.0	0.0	0.0	0.019	
1.0	0.0	0.0	0.0	0.0	0.003	
2.0	0.0	0.0	0.0	0.0	0.013	
3.0	0.0	0.0	0.0	0.0	0.003	
4.0	0.0	0.0	0.0	0.0	0.01	
5.0	0.0	0.0	0.0	0.0	0.022	
6.0	0.0	0.0	0.0	0.0	0.019	
7.0	0.0	0.0	0.0	0.0	0.006	
8.0	0.0	0.0	0.0	0.0	-0.006	
9.0	0.0	0.0	0.0	0.0	-0.016	
10.0	0.0	0.0	0.0	0.0	-0.013	
11.0	0.0	0.0	0.0	0.0	-0.026	
12.0	0.0	0.0	0.0	0.0	-0.026	
13.0	0.0	0.0	0.0	0.0	-0.013	
14.0	0.0	0.0	0.0	0.0	-0.003	
15.0	0.0	0.0	0.0	0.0	0.006	
0.0	0.0	0.0	0.0	0.0	0.026	
1.0	0.0	0.0	0.0	0.0	0.048	
2.0	0.0	0.0	0.0	0.0	0.045	
3.0	0.0	0.0	0.0	0.0	0.026	
4.0	0.0	0.0	0.0	0.0	0.013	
5.0	0.0	0.0	0.0	0.0	0.0	
6.0	0.0	0.0	0.0	0.0	-0.003	
7.0	0.0	0.0	0.0	0.0	-0.01	
8.0	0.0	0.0	0.0	0.0	0.0	
9.0	0.0	0.0	0.0	0.0	-0.003	
10.0	0.0	0.0	0.0	0.0	-0.003	
11.0	0.0	0.0	0.0	0.0	0.019	
12.0	0.0	0.0	0.0	0.0	0.019	
13.0	0.0	0.0	0.0	0.0	0.01	
14.0	0.0	0.0	0.0	0.0	-0.006	
15.0	0.0	0.0	0.0	0.0	-0.013	
0.0	0.0	0.0	0.0	0.0	-0.01	
1.0	0.0	0.0	0.0	0.0	-0.01	
2.0	0.0	0.0	0.0	0.0	-0.016	
3.0	0.0	0.0	0.0	0.0	-0.013	
4.0	0.0	0.0	0.0	0.0	-0.013	
5.0	0.0	0.0	0.0	0.0	-0.013	
6.0	0.0	0.0	0.0	0.0	-0.013	
7.0	0.0	0.0	0.0	0.0	0.0	
8.0	0.0	0.0	0.0	0.0	-0.003	
9.0	0.0	0.0	0.0	0.0	0.006	
10.0	0.0	0.0	0.0	0.0	0.006	
11.0	0.0	0.0	0.0	0.0	0.01	
12.0	0.0	0.0	0.0	0.0	0.013	
13.0	0.0	0.0	0.0	0.0	0.01	
14.0	0.0	0.0	0.0	0.0	0.01	
15.0	0.0	0.0	0.0	0.0	0.003	
0.0	0.0	0.0	0.0	0.0	0.01	
1.0	0.0	0.0	0.0	0.0	-0.003	
2.0	0.0	0.0	0.0	0.0	0.006	
3.0	0.0	0.0	0.0	0.0	0.006	
4.0	0.0	0.0	0.0	0.0	0.0	
5.0	0.0	0.0	0.0	0.0	0.019	
6.0	0.0	0.0	0.0	0.0	0.029	
7.0	0.0	0.0	0.0	0.0	0.016	
8.0	0.0	0.0	0.0	0.0	-0.003	
9.0	0.0	0.0	0.0	0.0	-0.006	
10.0	0.0	0.0	0.0	0.0	0.003	
11.0	0.0	0.0	0.0	0.0	0.003	
12.0	0.0	0.0	0.0	0.0	0.006	
13.0	0.0	0.0	0.0	0.0	0.006	
14.0	0.0	0.0	0.0	0.0	0.01	
15.0	0.0	0.0	0.0	0.0	0.01	
0.0	0.0	0.0	0.0	0.0	0.006	
1.0	0.0	0.0	0.0	0.0	0.0	
2.0	0.0	0.0	0.0	0.0	-0.003	
3.0	0.0	0.0	0.0	0.0	-0.003	
4.0	0.0	0.0	0.0	0.0	0.0	
5.0	0.0	0.0	0.0	0.0	0.003	
6.0	0.0	0.0	0.0	0.0	-0.013	
7.0	0.0	0.0	0.0	0.0	-0.006	
8.0	0.0	0.0	0.0	0.0	-0.003	
9.0	0.0	0.0	0.0	0.0	-0.003	
10.0	0.0	0.0	0.0	0.0	0.003	
11.0	0.0	0.0	0.0	0.0	0.01	
12.0	0.0	0.0	0.0	0.0	0.01	
13.0	0.0	0.0	0.0	0.0	0.003	
14.0	0.0	0.0	0.0	0.0	-0.003	
15.0	0.0	0.0	0.0	0.0	0.006	
0.0	0.0	0.0	0.0	0.0	0.01	
1.0	0.0	0.0	0.0	0.0	0.013	
2.0	0.0	0.0	0.0	0.0	0.013	
3.0	0.0	0.0	0.0	0.0	0.016	
4.0	0.0	0.0	0.0	0.0	0.019	
5.0	0.0	0.0	0.0	0.0	0.029	
6.0	0.0	0.0	0.0	0.0	0.016	
7.0	0.0	0.0	0.0	0.0	0.006	
8.0	0.0	0.0	0.0	0.0	0.0	
9.0	0.0	0.0	0.0	0.0	0.01	
10.0	0.0	0.0	0.0	0.0	0.01	
11.0	0.0	0.0	0.0	0.0	0.0	
12.0	0.0	0.0	0.0	0.0	0.0	
13.0	0.0	0.0	0.0	0.0	0.0	
14.0	0.0	0.0	0.0	0.0	-0.013	
15.0	0.0	0.0	0.0	0.0	-0.013	
0.0	0.0	0.0	0.0	0.0	0.006	
1.0	0.0	0.0	0.0	0.0	0.006	
2.0	0.0	0.0	0.0	0.0	0.003	
3.0	0.0	0.0	0.0	0.0	0.0	
4.0	0.0	0.0	0.0	0.0	0.0	
5.0	0.0	0.0	0.0	0.0	-0.006	
6.0	0.0	0.0	0.0	0.0	0.003	
7.0	0.0	0.0	0.0	0.0	-0.006	
8.0	0.0	0.0	0.0	0.0	-0.003	
9.0	0.0	0.0	0.0	0.0	0.0	
10.0	0.0	0.0	0.0	0.0	0.01	
11.0	0.0	0.0	0.0	0.0	0.013	
12.0	0.0	0.0	0.0	0.0	0.026	
13.0	0.0	0.0	0.0	0.0	0.029	
14.0	0.0	0.0	0.0	0.0	0.042	
15.0	0.0	0.0	0.0	0.0	0.022	
0.0	0.0	0.0	0.0	0.0	0.0	
1.0	0.0	0.0	0.0	0.0	-0.006	
2.0	0.0	0.0	0.0	0.0	-0.01	
3.0	0.0	0.0	0.0	0.0	-0.019	
4.0	0.0	0.0	0.0	0.0	-0.013	
5.0	0.0	0.0	0.0	0.0	-0.003	
6.0	0.0	0.0	0.0	0.0	-0.01	
7.0	0.0	0.0	0.0	0.0	-0.003	
8.0	0.0	0.0	0.0	0.0	0.0	
9.0	0.0	0.0	0.0	0.0	0.0	
10.0	0.0	0.0	0.0	0.0	0.003	
11.0	0.0	0.0	0.0	0.0	0.006	
12.0	0.0	0.0	0.0	0.0	0.003	
13.0	0.0	0.0	0.0	0.0	-0.006	
14.0	0.0	0.0	0.0	0.0	0.0	
15.0	0.0	0.0	0.0	0.0	-0.006	
0.0	0.0	0.0	0.0	0.0	-0.003	
1.0	0.0	0.0	0.0	0.0	-0.003	
2.0	0.0	0.0	0.0	0.0	0.01	
3.0	0.0	0.0	0.0	0.0	0.019	
4.0	0.0	0.0	0.0	0.0	0.019	
5.0	0.0	0.0	0.0	0.0	0.006	
6.0	0.0	0.0	0.0	0.0	0.01	
7.0	0.0	0.0	0.0	0.0	0.022	
8.0	0.0	0.0	0.0	0.0	0.026	
9.0	0.0	0.0	0.0	0.0	0.026	
10.0	0.0	0.0	0.0	0.0	0.016	
11.0	0.0	0.0	0.0	0.0	-0.006	
12.0	0.0	0.0	0.0	0.0	0.0	
13.0	0.0	0.0	0.0	0.0	0.003	
14.0	0.0	0.0	0.0	0.0	-0.003	
15.0	0.0	0.0	0.0	0.0	-0.016	
0.0	0.0	0.0	0.0	0.0	-0.013	
1.0	0.0	0.0	0.0	0.0	-0.006	
2.0	0.0	0.0	0.0	0.0	0.0	
3.0	0.0	0.0	0.0	0.0	0.003	
4.0	0.0	0.0	0.0	0.0	-0.003	
5.0	0.0	0.0	0.0	0.0	0.0	
6.0	0.0	0.0	0.0	0.0	0.003	
7.0	0.0	0.0	0.0	0.0	0.0	
8.0	0.0	0.0	0.0	0.0	0.0	
9.0	0.0	0.0	0.0	0.0	-0.003	
10.0	0.0	0.0	0.0	0.0	-0.006	
11.0	0.0	0.0	0.0	0.0	0.003	
12.0	0.0	0.0	0.0	0.0	0.0	
13.0	0.0	0.0	0.0	0.0	0.003	
14.0	0.0	0.0	0.0	0.0	0.003	
15.0	0.0	0.0	0.0	0.0	0.006	
0.0	0.0	0.0	0.0	0.0	0.006	
1.0	0.0	0.0	0.0	0.0	0.01	
2.0	0.0	0.0	0.0	0.0	0.016	
3.0	0.0	0.0	0.0	0.0	0.01	
4.0	0.0	0.0	0.0	0.0	0.006	
5.0	0.0	0.0	0.0	0.0	0.006	
6.0	0.0	0.0	0.0	0.0	0.013	
7.0	0.0	0.0	0.0	0.0	0.006	
8.0	0.0	0.0	0.0	0.0	0.01	
9.0	0.0	0.0	0.0	0.0	0.003	
10.0	0.0	0.0	0.0	0.0	0.01	
11.0	0.0	0.0	0.0	0.0	0.006	
12.0	0.0	0.0	0.0	0.0	-0.006	
13.0	0.0	0.0	0.0	0.0	-0.003	
14.0	0.0	0.0	0.0	0.0	-0.003	
15.0	0.0	0.0	0.0	0.0	0.003	
0.0	0.0	0.0	0.0	0.0	0.01	
1.0	0.0	0.0	0.0	0.0	0.006	
2.0	0.0	0.0	0.0	0.0	-0.006	
3.0	0.0	0.0	0.0	0.0	-0.003	
4.0	0.0	0.0	0.0	0.0	-0.003	
5.0	0.0	0.0	0.0	0.0	0.0	
6.0	0.0	0.0	0.0	0.0	0.003	
7.0	0.0	0.0	0.0	0.0	0.003	
8.0	0.0	0.0	0.0	0.0	0.01	
9.0	0.0	0.0	0.0	0.0	0.01	
10.0	0.0	0.0	0.0	0.0	0.0	
11.0	0.0	0.0	0.0	0.0	0.0	
12.0	0.0	0.0	0.0	0.0	0.01	
13.0	0.0	0.0	0.0	0.0	0.013	
14.0	0.0	0.0	0.0	0.0	0.01	
15.0	0.0	0.0	0.0	0.0	0.01	
0.0	0.0	0.0	0.0	0.0	0.013	
1.0	0.0	0.0	0.0	0.0	0.006	
2.0	0.0	0.0	0.0	0.0	0.026	
3.0	0.0	0.0	0.0	0.0	0.019	
4.0	0.0	0.0	0.0	0.0	0.006	
5.0	0.0	0.0	0.0	0.0	0.013	
6.0	0.0	0.0	0.0	0.0	0.006	
7.0	0.0	0.0	0.0	0.0	-0.003	
8.0	0.0	0.0	0.0	0.0	0.003	
9.0	0.0	0.0	0.0	0.0	0.019	
10.0	0.0	0.0	0.0	0.0	0.019	
11.0	0.0	0.0	0.0	0.0	0.01	
12.0	0.0	0.0	0.0	0.0	-0.01	
13.0	0.0	0.0	0.0	0.0	-0.016	
14.0	0.0	0.0	0.0	0.0	0.003	
15.0	0.0	0.0	0.0	0.0	0.0	
0.0	0.0	0.0	0.0	0.0	0.006	
1.0	0.0	0.0	0.0	0.0	-0.01	
2.0	0.0	0.0	0.0	0.0	-0.013	
3.0	0.0	0.0	0.0	0.0	-0.016	
4.0	0.0	0.0	0.0	0.0	-0.003	
5.0	0.0	0.0	0.0	0.0	-0.006	
6.0	0.0	0.0	0.0	0.0	0.01	
7.0	0.0	0.0	0.0	0.0	0.016	
8.0	0.0	0.0	0.0	0.0	0.013	
9.0	0.0	0.0	0.0	0.0	0.003	
10.0	0.0	0.0	0.0	0.0	0.003	
11.0	0.0	0.0	0.0	0.0	0.003	
12.0	0.0	0.0	0.0	0.0	0.01	
13.0	0.0	0.0	0.0	0.0	0.013	
14.0	0.0	0.0	0.0	0.0	0.016	
15.0	0.0	0.0	0.0	0.0	0.019	
0.0	0.0	0.0	0.0	0.0	0.01	
1.0	0.0	0.0	0.0	0.0	0.003	
2.0	0.0	0.0	0.0	0.0	0.0	
3.0	0.0	0.0	0.0	0.0	-0.006	
4.0	0.0	0.0	0.0	0.0	0.003	
5.0	0.0	0.0	0.0	0.0	0.0	
6.0	0.0	0.0	0.0	0.0	0.003	
7.0	0.0	0.0	0.0	0.0	0.003	
8.0	0.0	0.0	0.0	0.0	0.0	
9.0	0.0	0.0	0.0	0.0	-0.006	
10.0	0.0	0.0	0.0	0.0	0.003	
11.0	0.0	0.0	0.0	0.0	-0.022	
12.0	0.0	0.0	0.0	0.0	-0.006	
13.0	0.0	0.0	0.0	0.0	-0.016	
14.0	0.0	0.0	0.0	0.0	0.0	
15.0	0.0	0.0	0.0	0.0	0.0	
0.0	0.0	0.0	0.0	0.0	0.003	
1.0	0.0	0.0	0.0	0.0	0.006	
2.0	0.0	0.0	0.0	0.0	0.01	
3.0	0.0	0.0	0.0	0.0	0.016	
4.0	0.0	0.0	0.0	0.0	0.026	
5.0	0.0	0.0	0.0	0.0	0.029	
6.0	0.0	0.0	0.0	0.0	0.022	
7.0	0.0	0.0	0.0	0.0	0.019	
8.0	0.0	0.0	0.0	0.0	0.0	
9.0	0.0	0.0	0.0	0.0	-0.006	
10.0	0.0	0.0	0.0	0.0	0.003	
11.0	0.0	0.0	0.0	0.0	0.006	
12.0	0.0	0.0	0.0	0.0	0.0	
13.0	0.0	0.0	0.0	0.0	-0.006	
14.0	0.0	0.0	0.0	0.0	-0.01	
15.0	0.0	0.0	0.0	0.0	-0.003	
0.0	0.0	0.0	0.0	0.0	0.0	
1.0	0.0	0.0	0.0	0.0	-0.006	
2.0	0.0	0.0	0.0	0.0	0.0	
3.0	0.0	0.0	0.0	0.0	0.0	
4.0	0.0	0.0	0.0	0.0	0.0	
5.0	0.0	0.0	0.0	0.0	0.003	
6.0	0.0	0.0	0.0	0.0	0.016	
7.0	0.0	0.0	0.0	0.0	0.006	
8.0	0.0	0.0	0.0	0.0	0.006	
9.0	0.0	0.0	0.0	0.0	0.006	
10.0	0.0	0.0	0.0	0.0	0.006	
11.0	0.0	0.0	0.0	0.0	0.0	
12.0	0.0	0.0	0.0	0.0	0.0	
13.0	0.0	0.0	0.0	0.0	-0.003	
14.0	0.0	0.0	0.0	0.0	-0.013	
15.0	0.0	0.0	0.0	0.0	-0.016	
0.0	0.0	0.0	0.0	0.0	-0.013	
1.0	0.0	0.0	0.0	0.0	-0.013	
2.0	0.0	0.0	0.0	0.0	0.0	
3.0	0.0	0.0	0.0	0.0	0.006	
4.0	0.0	0.0	0.0	0.0	0.016	
5.0	0.0	0.0	0.0	0.0	0.032	
6.0	0.0	0.0	0.0	0.0	0.042	
7.0	0.0	0.0	0.0	0.0	0.057	
8.0	0.0	0.0	0.0	0.0	0.045	
9.0	0.0	0.0	0.0	0.0	0.045	
10.0	0.0	0.0	0.0	0.0	0.026	
11.0	0.0	0.0	0.0	0.0	0.003	
12.0	0.0	0.0	0.0	0.0	0.003	
13.0	0.0	0.0	0.0	0.0	0.006	
14.0	0.0	0.0	0.0	0.0	0.016	
15.0	0.0	0.0	0.0	0.0	0.013	
0.0	0.0	0.0	0.0	0.0	0.006	
1.0	0.0	0.0	0.0	0.0	0.01	
2.0	0.0	0.0	0.0	0.0	0.01	
3.0	0.0	0.0	0.0	0.0	-0.006	
4.0	0.0	0.0	0.0	0.0	-0.013	
5.0	0.0	0.0	0.0	0.0	-0.022	
6.0	0.0	0.0	0.0	0.0	-0.019	
7.0	0.0	0.0	0.0	0.0	-0.022	
8.0	0.0	0.0	0.0	0.0	-0.013	
9.0	0.0	0.0	0.0	0.0	-0.006	
10.0	0.0	0.0	0.0	0.0	-0.003	
11.0	0.0	0.0	0.0	0.0	-0.01	
12.0	0.0	0.0	0.0	0.0	-0.006	
13.0	0.0	0.0	0.0	0.0	-0.01	
14.0	0.0	0.0	0.0	0.0	0.003	
15.0	0.0	0.0	0.0	0.0	0.0	
0.0	0.0	0.0	0.0	0.0	0.006	
1.0	0.0	0.0	0.0	0.0	0.006	
2.0	0.0	0.0	0.0	0.0	0.006	
3.0	0.0	0.0	0.0	0.0	0.016	
4.0	0.0	0.0	0.0	0.0	0.013	
5.0	0.0	0.0	0.0	0.0	0.003	
6.0	0.0	0.0	0.0	0.0	0.01	
7.0	0.0	0.0	0.0	0.0	0.01	
8.0	0.0	0.0	0.0	0.0	0.01	
9.0	0.0	0.0	0.0	0.0	0.01	
10.0	0.0	0.0	0.0	0.0	0.019	
11.0	0.0	0.0	0.0	0.0	0.022	
12.0	0.0	0.0	0.0	0.0	0.013	
13.0	0.0	0.0	0.0	0.0	0.01	
14.0	0.0	0.0	0.0	0.0	0.003	
15.0	0.0	0.0	0.0	0.0	0.01	
0.0	0.0	0.0	0.0	0.0	0.01	
1.0	0.0	0.0	0.0	0.0	0.003	
2.0	0.0	0.0	0.0	0.0	0.0	
3.0	0.0	0.0	0.0	0.0	0.003	
4.0	0.0	0.0	0.0	0.0	0.016	
5.0	0.0	0.0	0.0	0.0	-0.003	
6.0	0.0	0.0	0.0	0.0	-0.003	
7.0	0.0	0.0	0.0	0.0	-0.01	
8.0	0.0	0.0	0.0	0.0	-0.01	
9.0	0.0	0.0	0.0	0.0	-0.006	
10.0	0.0	0.0	0.0	0.0	-0.006	
11.0	0.0	0.0	0.0	0.0	-0.013	
12.0	0.0	0.0	0.0	0.0	-0.01	
13.0	0.0	0.0	0.0	0.0	-0.006	
14.0	0.0	0.0	0.0	0.0	0.0	
15.0	0.0	0.0	0.0	0.0	0.01	
0.0	0.0	0.0	0.0	0.0	0.038	
1.0	0.0	0.0	0.0	0.0	0.045	
2.0	0.0	0.0	0.0	0.0	0.042	
3.0	0.0	0.0	0.0	0.0	0.038	
4.0	0.0	0.0	0.0	0.0	0.022	
5.0	0.0	0.0	0.0	0.0	0.022	
6.0	0.0	0.0	0.0	0.0	0.035	
7.0	0.0	0.0	0.0	0.0	0.029	
8.0	0.0	0.0	0.0	0.0	0.019	
9.0	0.0	0.0	0.0	0.0	0.003	
10.0	0.0	0.0	0.0	0.0	-0.013	
11.0	0.0	0.0	0.0	0.0	-0.003	
12.0	0.0	0.0	0.0	0.0	-0.01	
13.0	0.0	0.0	0.0	0.0	-0.006	
14.0	0.0	0.0	0.0	0.0	0.006	
15.0	0.0	0.0	0.0	0.0	-0.016	
0.0	0.0	0.0	0.0	0.0	-0.013	
1.0	0.0	0.0	0.0	0.0	-0.016	
2.0	0.0	0.0	0.0	0.0	-0.019	
3.0	0.0	0.0	0.0	0.0	-0.003	
4.0	0.0	0.0	0.0	0.0	-0.006	
5.0	0.0	0.0	0.0	0.0	-0.01	
6.0	0.0	0.0	0.0	0.0	0.0	
7.0	0.0	0.0	0.0	0.0	0.013	
8.0	0.0	0.0	0.0	0.0	0.013	
9.0	0.0	0.0	0.0	0.0	0.01	
10.0	0.0	0.0	0.0	0.0	0.003	
11.0	0.0	0.0	0.0	0.0	0.013	
12.0	0.0	0.0	0.0	0.0	0.019	
13.0	0.0	0.0	0.0	0.0	0.013	
14.0	0.0	0.0	0.0	0.0	0.01	
15.0	0.0	0.0	0.0	0.0	0.01	
0.0	0.0	0.0	0.0	0.0	0.016	
1.0	0.0	0.0	0.0	0.0	0.006	
2.0	0.0	0.0	0.0	0.0	0.006	
3.0	0.0	0.0	0.0	0.0	0.01	
4.0	0.0	0.0	0.0	0.0	0.01	
5.0	0.0	0.0	0.0	0.0	0.003	
6.0	0.0	0.0	0.0	0.0	-0.006	
7.0	0.0	0.0	0.0	0.0	-0.006	
8.0	0.0	0.0	0.0	0.0	-0.01	
9.0	0.0	0.0	0.0	0.0	-0.01	
10.0	0.0	0.0	0.0	0.0	-0.013	
11.0	0.0	0.0	0.0	0.0	-0.006	
12.0	0.0	0.0	0.0	0.0	-0.006	
13.0	0.0	0.0	0.0	0.0	-0.003	
14.0	0.0	0.0	0.0	0.0	-0.003	
15.0	0.0	0.0	0.0	0.0	-0.006	
0.0	0.0	0.0	0.0	0.0	-0.016	
1.0	0.0	0.0	0.0	0.0	-0.003	
2.0	0.0	0.0	0.0	0.0	0.003	
3.0	0.0	0.0	0.0	0.0	0.0	
4.0	0.0	0.0	0.0	0.0	0.003	
5.0	0.0	0.0	0.0	0.0	0.01	
6.0	0.0	0.0	0.0	0.0	0.013	
7.0	0.0	0.0	0.0	0.0	0.0	
8.0	0.0	0.0	0.0	0.0	-0.003	
9.0	0.0	0.0	0.0	0.0	-0.003	
10.0	0.0	0.0	0.0	0.0	0.016	
11.0	0.0	0.0	0.0	0.0	0.019	
12.0	0.0	0.0	0.0	0.0	0.003	
13.0	0.0	0.0	0.0	0.0	0.0	
14.0	0.0	0.0	0.0	0.0	0.003	
15.0	0.0	0.0	0.0	0.0	0.0	
0.0	0.0	0.0	0.0	0.0	0.003	
1.0	0.0	0.0	0.0	0.0	0.003	
2.0	0.0	0.0	0.0	0.0	0.022	
3.0	0.0	0.0	0.0	0.0	0.019	
4.0	0.0	0.0	0.0	0.0	0.016	
5.0	0.0	0.0	0.0	0.0	-0.003	
6.0	0.0	0.0	0.0	0.0	-0.01	
7.0	0.0	0.0	0.0	0.0	-0.003	
8.0	0.0	0.0	0.0	0.0	-0.006	
9.0	0.0	0.0	0.0	0.0	-0.006	
10.0	0.0	0.0	0.0	0.0	-0.006	
11.0	0.0	0.0	0.0	0.0	0.01	
12.0	0.0	0.0	0.0	0.0	0.029	
13.0	0.0	0.0	0.0	0.0	0.019	
14.0	0.0	0.0	0.0	0.0	0.013	
15.0	0.0	0.0	0.0	0.0	0.006	
0.0	0.0	0.0	0.0	0.0	0.0	
1.0	0.0	0.0	0.0	0.0	0.0	
2.0	0.0	0.0	0.0	0.0	0.003	
3.0	0.0	0.0	0.0	0.0	0.0	
4.0	0.0	0.0	0.0	0.0	0.006	
5.0	0.0	0.0	0.0	0.0	0.0	
6.0	0.0	0.0	0.0	0.0	0.003	
7.0	0.0	0.0	0.0	0.0	-0.003	
8.0	0.0	0.0	0.0	0.0	-0.006	
9.0	0.0	0.0	0.0	0.0	-0.006	
10.0	0.0	0.0	0.0	0.0	-0.003	
11.0	0.0	0.0	0.0	0.0	-0.013	
12.0	0.0	0.0	0.0	0.0	-0.01	
13.0	0.0	0.0	0.0	0.0	-0.003	
14.0	0.0	0.0	0.0	0.0	0.003	
15.0	0.0	0.0	0.0	0.0	0.003	
0.0	0.0	0.0	0.0	0.0	-0.006	
1.0	0.0	0.0	0.0	0.0	-0.003	
2.0	0.0	0.0	0.0	0.0	0.0	
3.0	0.0	0.0	0.0	0.0	0.006	
4.0	0.0	0.0	0.0	0.0	0.006	
5.0	0.0	0.0	0.0	0.0	0.01	
6.0	0.0	0.0	0.0	0.0	0.022	
7.0	0.0	0.0	0.0	0.0	0.01	
8.0	0.0	0.0	0.0	0.0	0.01	
9.0	0.0	0.0	0.0	0.0	0.01	
10.0	0.0	0.0	0.0	0.0	0.006	
11.0	0.0	0.0	0.0	0.0	0.013	
12.0	0.0	0.0	0.0	0.0	0.006	
13.0	0.0	0.0	0.0	0.0	0.013	
14.0	0.0	0.0	0.0	0.0	0.01	
15.0	0.0	0.0	0.0	0.0	-0.003	
0.0	0.0	0.0	0.0	0.0	0.01	
1.0	0.0	0.0	0.0	0.0	0.006	
2.0	0.0	0.0	0.0	0.0	0.003	
3.0	0.0	0.0	0.0	0.0	0.006	
4.0	0.0	0.0	0.0	0.0	0.003	
5.0	0.0	0.0	0.0	0.0	0.006	
6.0	0.0	0.0	0.0	0.0	-0.003	
7.0	0.0	0.0	0.0	0.0	0.01	
8.0	0.0	0.0	0.0	0.0	0.003	
9.0	0.0	0.0	0.0	0.0	0.01	
10.0	0.0	0.0	0.0	0.0	0.0	
11.0	0.0	0.0	0.0	0.0	-0.016	
12.0	0.0	0.0	0.0	0.0	-0.006	
13.0	0.0	0.0	0.0	0.0	0.006	
14.0	0.0	0.0	0.0	0.0	0.003	
15.0	0.0	0.0	0.0	0.0	0.003	
0.0	0.0	0.0	0.0	0.0	0.016	
1.0	0.0	0.0	0.0	0.0	0.019	
2.0	0.0	0.0	0.0	0.0	0.016	
3.0	0.0	0.0	0.0	0.0	0.006	
4.0	0.0	0.0	0.0	0.0	0.0	
5.0	0.0	0.0	0.0	0.0	0.0	
6.0	0.0	0.0	0.0	0.0	0.003	
7.0	0.0	0.0	0.0	0.0	-0.003	
8.0	0.0	0.0	0.0	0.0	0.0	
9.0	0.0	0.0	0.0	0.0	0.006	
10.0	0.0	0.0	0.0	0.0	0.003	
11.0	0.0	0.0	0.0	0.0	-0.003	
12.0	0.0	0.0	0.0	0.0	0.0	
13.0	0.0	0.0	0.0	0.0	-0.006	
14.0	0.0	0.0	0.0	0.0	0.0	
15.0	0.0	0.0	0.0	0.0	0.003	
0.0	0.0	0.0	0.0	0.0	0.003	
1.0	0.0	0.0	0.0	0.0	-0.006	
2.0	0.0	0.0	0.0	0.0	-0.013	
3.0	0.0	0.0	0.0	0.0	-0.013	
4.0	0.0	0.0	0.0	0.0	-0.003	
5.0	0.0	0.0	0.0	0.0	-0.006	
6.0	0.0	0.0	0.0	0.0	-0.003	
7.0	0.0	0.0	0.0	0.0	0.003	
8.0	0.0	0.0	0.0	0.0	0.016	
9.0	0.0	0.0	0.0	0.0	0.006	
10.0	0.0	0.0	0.0	0.0	0.0	
11.0	0.0	0.0	0.0	0.0	0.013	
12.0	0.0	0.0	0.0	0.0	0.029	
13.0	0.0	0.0	0.0	0.0	0.029	
14.0	0.0	0.0	0.0	0.0	0.035	
15.0	0.0	0.0	0.0	0.0	0.006	
0.0	0.0	0.0	0.0	0.0	0.013	
1.0	0.0	0.0	0.0	0.0	0.0	
2.0	0.0	0.0	0.0	0.0	0.01	
3.0	0.0	0.0	0.0	0.0	0.003	
4.0	0.0	0.0	0.0	0.0	0.006	
5.0	0.0	0.0	0.0	0.0	0.0	
6.0	0.0	0.0	0.0	0.0	0.0	
7.0	0.0	0.0	0.0	0.0	-0.006	
8.0	0.0	0.0	0.0	0.0	-0.003	
9.0	0.0	0.0	0.0	0.0	-0.003	
10.0	0.0	0.0	0.0	0.0	-0.006	
11.0	0.0	0.0	0.0	0.0	-0.003	
12.0	0.0	0.0	0.0	0.0	0.003	
13.0	0.0	0.0	0.0	0.0	0.0	
14.0	0.0	0.0	0.0	0.0	0.006	
15.0	0.0	0.0	0.0	0.0	0.006	
0.0	0.0	0.0	0.0	0.0	-0.006	
1.0	0.0	0.0	0.0	0.0	-0.01	
2.0	0.0	0.0	0.0	0.0	-0.003	
3.0	0.0	0.0	0.0	0.0	0.006	
4.0	0.0	0.0	0.0	0.0	0.0	
5.0	0.0	0.0	0.0	0.0	-0.01	
6.0	0.0	0.0	0.0	0.0	-0.013	
7.0	0.0	0.0	0.0	0.0	0.0	
8.0	0.0	0.0	0.0	0.0	0.01	
9.0	0.0	0.0	0.0	0.0	0.01	
10.0	0.0	0.0	0.0	0.0	0.019	
11.0	0.0	0.0	0.0	0.0	0.022	
12.0	0.0	0.0	0.0	0.0	0.022	
13.0	0.0	0.0	0.0	0.0	0.022	
14.0	0.0	0.0	0.0	0.0	0.01	
15.0	0.0	0.0	0.0	0.0	0.0	
0.0	0.0	0.0	0.0	0.0	0.006	
1.0	0.0	0.0	0.0	0.0	0.01	
2.0	0.0	0.0	0.0	0.0	-0.003	
3.0	0.0	0.0	0.0	0.0	-0.01	
4.0	0.0	0.0	0.0	0.0	-0.013	
5.0	0.0	0.0	0.0	0.0	-0.013	
6.0	0.0	0.0	0.0	0.0	-0.013	
7.0	0.0	0.0	0.0	0.0	-0.019	
8.0	0.0	0.0	0.0	0.0	-0.01	
9.0	0.0	0.0	0.0	0.0	-0.016	
10.0	0.0	0.0	0.0	0.0	-0.013	
11.0	0.0	0.0	0.0	0.0	-0.01	
12.0	0.0	0.0	0.0	0.0	0.003	
13.0	0.0	0.0	0.0	0.0	0.022	
14.0	0.0	0.0	0.0	0.0	0.029	
15.0	0.0	0.0	0.0	0.0	0.038	
0.0	0.0	0.0	0.0	0.0	0.029	
1.0	0.0	0.0	0.0	0.0	0.022	
2.0	0.0	0.0	0.0	0.0	0.0	
3.0	0.0	0.0	0.0	0.0	-0.003	
4.0	0.0	0.0	0.0	0.0	0.013	
5.0	0.0	0.0	0.0	0.0	0.006	
6.0	0.0	0.0	0.0	0.0	-0.003	
7.0	0.0	0.0	0.0	0.0	-0.01	
8.0	0.0	0.0	0.0	0.0	-0.006	
9.0	0.0	0.0	0.0	0.0	0.003	
10.0	0.0	0.0	0.0	0.0	0.0	
11.0	0.0	0.0	0.0	0.0	-0.006	
12.0	0.0	0.0	0.0	0.0	0.003	
13.0	0.0	0.0	0.0	0.0	-0.016	
14.0	0.0	0.0	0.0	0.0	-0.016	
15.0	0.0	0.0	0.0	0.0	-0.006	
0.0	0.0	0.0	0.0	0.0	0.016	
1.0	0.0	0.0	0.0	0.0	0.0	
2.0	0.0	0.0	0.0	0.0	0.003	
3.0	0.0	0.0	0.0	0.0	0.022	
4.0	0.0	0.0	0.0	0.0	0.013	
5.0	0.0	0.0	0.0	0.0	0.016	
6.0	0.0	0.0	0.0	0.0	0.016	
7.0	0.0	0.0	0.0	0.0	0.006	
8.0	0.0	0.0	0.0	0.0	0.006	
9.0	0.0	0.0	0.0	0.0	0.003	
10.0	0.0	0.0	0.0	0.0	-0.006	
11.0	0.0	0.0	0.0	0.0	-0.01	
12.0	0.0	0.0	0.0	0.0	-0.01	
13.0	0.0	0.0	0.0	0.0	-0.003	
14.0	0.0	0.0	0.0	0.0	0.003	
15.0	0.0	0.0	0.0	0.0	-0.003	
0.0	0.0	0.0	0.0	0.0	0.003	
1.0	0.0	0.0	0.0	0.0	0.01	
2.0	0.0	0.0	0.0	0.0	0.01	
3.0	0.0	0.0	0.0	0.0	0.013	
4.0	0.0	0.0	0.0	0.0	0.019	
5.0	0.0	0.0	0.0	0.0	0.013	
6.0	0.0	0.0	0.0	0.0	0.01	
7.0	0.0	0.0	0.0	0.0	0.003	
8.0	0.0	0.0	0.0	0.0	0.006	
9.0	0.0	0.0	0.0	0.0	0.006	
10.0	0.0	0.0	0.0	0.0	0.003	
11.0	0.0	0.0	0.0	0.0	0.016	
12.0	0.0	0.0	0.0	0.0	0.019	
13.0	0.0	0.0	0.0	0.0	0.013	
14.0	0.0	0.0	0.0	0.0	-0.003	
15.0	0.0	0.0	0.0	0.0	-0.01	
0.0	0.0	0.0	0.0	0.0	0.0	
1.0	0.0	0.0	0.0	0.0	0.0	
2.0	0.0	0.0	0.0	0.0	0.003	
3.0	0.0	0.0	0.0	0.0	-0.003	
4.0	0.0	0.0	0.0	0.0	0.003	
5.0	0.0	0.0	0.0	0.0	-0.003	
6.0	0.0	0.0	0.0	0.0	0.003	
7.0	0.0	0.0	0.0	0.0	0.003	
8.0	0.0	0.0	0.0	0.0	0.019	
9.0	0.0	0.0	0.0	0.0	0.019	
10.0	0.0	0.0	0.0	0.0	0.029	
11.0	0.0	0.0	0.0	0.0	0.029	
12.0	0.0	0.0	0.0	0.0	0.035	
13.0	0.0	0.0	0.0	0.0	0.022	
14.0	0.0	0.0	0.0	0.0	0.022	
15.0	0.0	0.0	0.0	0.0	0.006	
0.0	0.0	0.0	0.0	0.0	-0.016	
1.0	0.0	0.0	0.0	0.0	-0.022	
2.0	0.0	0.0	0.0	0.0	-0.022	
3.0	0.0	0.0	0.0	0.0	-0.026	
4.0	0.0	0.0	0.0	0.0	-0.022	
5.0	0.0	0.0	0.0	0.0	-0.016	
6.0	0.0	0.0	0.0	0.0	-0.006	
7.0	0.0	0.0	0.0	0.0	0.013	
8.0	0.0	0.0	0.0	0.0	0.016	
9.0	0.0	0.0	0.0	0.0	0.01	
10.0	0.0	0.0	0.0	0.0	0.022	
11.0	0.0	0.0	0.0	0.0	0.01	
12.0	0.0	0.0	0.0	0.0	0.022	
13.0	0.0	0.0	0.0	0.0	0.029	
14.0	0.0	0.0	0.0	0.0	0.01	
15.0	0.0	0.0	0.0	0.0	0.01	
0.0	0.0	0.0	0.0	0.0	0.01	
1.0	0.0	0.0	0.0	0.0	0.006	
2.0	0.0	0.0	0.0	0.0	0.003	
3.0	0.0	0.0	0.0	0.0	0.013	
4.0	0.0	0.0	0.0	0.0	-0.003	
5.0	0.0	0.0	0.0	0.0	-0.006	
6.0	0.0	0.0	0.0	0.0	-0.006	
7.0	0.0	0.0	0.0	0.0	-0.013	
8.0	0.0	0.0	0.0	0.0	-0.019	
9.0	0.0	0.0	0.0	0.0	-0.006	
10.0	0.0	0.0	0.0	0.0	-0.013	
11.0	0.0	0.0	0.0	0.0	-0.016	
12.0	0.0	0.0	0.0	0.0	-0.01	
13.0	0.0	0.0	0.0	0.0	-0.003	
14.0	0.0	0.0	0.0	0.0	0.0	
15.0	0.0	0.0	0.0	0.0	0.01	
0.0	0.0	0.0	0.0	0.0	0.006	
1.0	0.0	0.0	0.0	0.0	0.01	
2.0	0.0	0.0	0.0	0.0	0.01	
3.0	0.0	0.0	0.0	0.0	0.016	
4.0	0.0	0.0	0.0	0.0	0.026	
5.0	0.0	0.0	0.0	0.0	0.006	
6.0	0.0	0.0	0.0	0.0	0.013	
7.0	0.0	0.0	0.0	0.0	0.016	
8.0	0.0	0.0	0.0	0.0	0.013	
9.0	0.0	0.0	0.0	0.0	0.019	
10.0	0.0	0.0	0.0	0.0	0.019	
11.0	0.0	0.0	0.0	0.0	0.01	
12.0	0.0	0.0	0.0	0.0	0.006	
13.0	0.0	0.0	0.0	0.0	0.01	
14.0	0.0	0.0	0.0	0.0	-0.003	
15.0	0.0	0.0	0.0	0.0	-0.003	
0.0	0.0	0.0	0.0	0.0	-0.019	
1.0	0.0	0.0	0.0	0.0	-0.016	
2.0	0.0	0.0	0.0	0.0	-0.013	
3.0	0.0	0.0	0.0	0.0	-0.013	
4.0	0.0	0.0	0.0	0.0	-0.01	
5.0	0.0	0.0	0.0	0.0	0.003	
6.0	0.0	0.0	0.0	0.0	0.013	
7.0	0.0	0.0	0.0	0.0	0.019	
8.0	0.0	0.0	0.0	0.0	0.022	
9.0	0.0	0.0	0.0	0.0	0.026	
10.0	0.0	0.0	0.0	0.0	0.016	
11.0	0.0	0.0	0.0	0.0	0.003	
12.0	0.0	0.0	0.0	0.0	0.006	
13.0	0.0	0.0	0.0	0.0	-0.006	
14.0	0.0	0.0	0.0	0.0	-0.003	
15.0	0.0	0.0	0.0	0.0	-0.013	
0.0	0.0	0.0	0.0	0.0	-0.006	
1.0	0.0	0.0	0.0	0.0	-0.01	
2.0	0.0	0.0	0.0	0.0	0.006	
3.0	0.0	0.0	0.0	0.0	0.006	
4.0	0.0	0.0	0.0	0.0	0.01	
5.0	0.0	0.0	0.0	0.0	0.01	
6.0	0.0	0.0	0.0	0.0	0.016	
7.0	0.0	0.0	0.0	0.0	0.019	
8.0	0.0	0.0	0.0	0.0	0.013	
9.0	0.0	0.0	0.0	0.0	0.003	
10.0	0.0	0.0	0.0	0.0	-0.006	
11.0	0.0	0.0	0.0	0.0	-0.013	
12.0	0.0	0.0	0.0	0.0	0.003	
13.0	0.0	0.0	0.0	0.0	0.01	
14.0	0.0	0.0	0.0	0.0	-0.003	
15.0	0.0	0.0	0.0	0.0	-0.003	
0.0	0.0	0.0	0.0	0.0	0.0	
1.0	0.0	0.0	0.0	0.0	0.006	
2.0	0.0	0.0	0.0	0.0	0.01	
3.0	0.0	0.0	0.0	0.0	0.0	
4.0	0.0	0.0	0.0	0.0	-0.006	
5.0	0.0	0.0	0.0	0.0	-0.006	
6.0	0.0	0.0	0.0	0.0	0.01	
7.0	0.0	0.0	0.0	0.0	0.003	
8.0	0.0	0.0	0.0	0.0	-0.003	
9.0	0.0	0.0	0.0	0.0	0.0	
10.0	0.0	0.0	0.0	0.0	0.0	
11.0	0.0	0.0	0.0	0.0	0.01	
12.0	0.0	0.0	0.0	0.0	0.022	
13.0	0.0	0.0	0.0	0.0	0.003	
14.0	0.0	0.0	0.0	0.0	-0.003	
15.0	0.0	0.0	0.0	0.0	-0.003	
0.0	0.0	0.0	0.0	0.0	0.013	
1.0	0.0	0.0	0.0	0.0	0.016	
2.0	0.0	0.0	0.0	0.0	0.006	
3.0	0.0	0.0	0.0	0.0	-0.003	
4.0	0.0	0.0	0.0	0.0	0.0	
5.0	0.0	0.0	0.0	0.0	-0.003	
6.0	0.0	0.0	0.0	0.0	-0.006	
7.0	0.0	0.0	0.0	0.0	-0.019	
8.0	0.0	0.0	0.0	0.0	-0.006	
9.0	0.0	0.0	0.0	0.0	-0.003	
10.0	0.0	0.0	0.0	0.0	0.003	
11.0	0.0	0.0	0.0	0.0	0.003	
12.0	0.0	0.0	0.0	0.0	0.003	
13.0	0.0	0.0	0.0	0.0	-0.003	
14.0	0.0	0.0	0.0	0.0	0.0	
15.0	0.0	0.0	0.0	0.0	0.01	
0.0	0.0	0.0	0.0	0.0	0.019	
1.0	0.0	0.0	0.0	0.0	0.019	
2.0	0.0	0.0	0.0	0.0	0.019	
3.0	0.0	0.0	0.0	0.0	0.013	
4.0	0.0	0.0	0.0	0.0	0.01	
5.0	0.0	0.0	0.0	0.0	-0.006	
6.0	0.0	0.0	0.0	0.0	-0.003	
7.0	0.0	0.0	0.0	0.0	0.003	
8.0	0.0	0.0	0.0	0.0	0.0	
9.0	0.0	0.0	0.0	0.0	-0.003	
10.0	0.0	0.0	0.0	0.0	0.0	
11.0	0.0	0.0	0.0	0.0	0.0	
12.0	0.0	0.0	0.0	0.0	0.0	
13.0	0.0	0.0	0.0	0.0	-0.01	
14.0	0.0	0.0	0.0	0.0	0.0	
15.0	0.0	0.0	0.0	0.0	0.0	
0.0	0.0	0.0	0.0	0.0	-0.003	
1.0	0.0	0.0	0.0	0.0	0.01	
2.0	0.0	0.0	0.0	0.0	0.013	
3.0	0.0	0.0	0.0	0.0	0.01	
4.0	0.0	0.0	0.0	0.0	0.022	
5.0	0.0	0.0	0.0	0.0	0.022	
6.0	0.0	0.0	0.0	0.0	0.026	
7.0	0.0	0.0	0.0	0.0	0.019	
8.0	0.0	0.0	0.0	0.0	0.022	
9.0	0.0	0.0	0.0	0.0	0.026	
10.0	0.0	0.0	0.0	0.0	-0.006	
11.0	0.0	0.0	0.0	0.0	-0.006	
12.0	0.0	0.0	0.0	0.0	-0.006	
13.0	0.0	0.0	0.0	0.0	-0.013	
14.0	0.0	0.0	0.0	0.0	-0.01	
15.0	0.0	0.0	0.0	0.0	-0.022	
0.0	0.0	0.0	0.0	0.0	-0.026	
1.0	0.0	0.0	0.0	0.0	-0.003	
2.0	0.0	0.0	0.0	0.0	0.006	
3.0	0.0	0.0	0.0	0.0	0.013	
4.0	0.0	0.0	0.0	0.0	0.013	
5.0	0.0	0.0	0.0	0.0	0.026	
6.0	0.0	0.0	0.0	0.0	0.013	
7.0	0.0	0.0	0.0	0.0	0.013	
8.0	0.0	0.0	0.0	0.0	0.013	
9.0	0.0	0.0	0.0	0.0	-0.003	
10.0	0.0	0.0	0.0	0.0	-0.003	
11.0	0.0	0.0	0.0	0.0	0.0	
12.0	0.0	0.0	0.0	0.0	0.006	
13.0	0.0	0.0	0.0	0.0	0.0	
14.0	0.0	0.0	0.0	0.0	0.006	
15.0	0.0	0.0	0.0	0.0	0.013	
0.0	0.0	0.0	0.0	0.0	0.003	
1.0	0.0	0.0	0.0	0.0	0.0	
2.0	0.0	0.0	0.0	0.0	0.006	
3.0	0.0	0.0	0.0	0.0	0.006	
4.0	0.0	0.0	0.0	0.0	0.006	
5.0	0.0	0.0	0.0	0.0	-0.003	
6.0	0.0	0.0	0.0	0.0	-0.01	
7.0	0.0	0.0	0.0	0.0	0.0	
8.0	0.0	0.0	0.0	0.0	0.01	
9.0	0.0	0.0	0.0	0.0	0.003	
10.0	0.0	0.0	0.0	0.0	0.003	
11.0	0.0	0.0	0.0	0.0	0.0	
12.0	0.0	0.0	0.0	0.0	0.01	
13.0	0.0	0.0	0.0	0.0	0.006	
14.0	0.0	0.0	0.0	0.0	0.01	
15.0	0.0	0.0	0.0	0.0	0.019	
0.0	0.0	0.0	0.0	0.0	0.032	
1.0	0.0	0.0	0.0	0.0	0.022	
2.0	0.0	0.0	0.0	0.0	0.01	
3.0	0.0	0.0	0.0	0.0	0.0	
4.0	0.0	0.0	0.0	0.0	0.0	
5.0	0.0	0.0	0.0	0.0	0.0	
6.0	0.0	0.0	0.0	0.0	0.006	
7.0	0.0	0.0	0.0	0.0	0.003	
8.0	0.0	0.0	0.0	0.0	-0.006	
9.0	0.0	0.0	0.0	0.0	0.006	
10.0	0.0	0.0	0.0	0.0	0.006	
11.0	0.0	0.0	0.0	0.0	-0.003	
12.0	0.0	0.0	0.0	0.0	-0.01	
13.0	0.0	0.0	0.0	0.0	-0.013	
14.0	0.0	0.0	0.0	0.0	-0.003	
15.0	0.0	0.0	0.0	0.0	0.006	
0.0	0.0	0.0	0.0	0.0	0.003	
1.0	0.0	0.0	0.0	0.0	0.006	
2.0	0.0	0.0	0.0	0.0	-0.003	
3.0	0.0	0.0	0.0	0.0	-0.016	
4.0	0.0	0.0	0.0	0.0	-0.006	
5.0	0.0	0.0	0.0	0.0	-0.006	
6.0	0.0	0.0	0.0	0.0	-0.003	
7.0	0.0	0.0	0.0	0.0	-0.022	
8.0	0.0	0.0	0.0	0.0	-0.016	
9.0	0.0	0.0	0.0	0.0	-0.013	
10.0	0.0	0.0	0.0	0.0	-0.006	
11.0	0.0	0.0	0.0	0.0	0.006	
12.0	0.0	0.0	0.0	0.0	0.019	
13.0	0.0	0.0	0.0	0.0	0.035	
14.0	0.0	0.0	0.0	0.0	0.038	
15.0	0.0	0.0	0.0	0.0	0.022	
0.0	0.0	0.0	0.0	0.0	0.026	
1.0	0.0	0.0	0.0	0.0	0.006	
2.0	0.0	0.0	0.0	0.0	0.0	
3.0	0.0	0.0	0.0	0.0	0.0	
4.0	0.0	0.0	0.0	0.0	0.01	
5.0	0.0	0.0	0.0	0.0	0.003	
6.0	0.0	0.0	0.0	0.0	0.0	
7.0	0.0	0.0	0.0	0.0	-0.003	
8.0	0.0	0.0	0.0	0.0	-0.013	
9.0	0.0	0.0	0.0	0.0	-0.003	
10.0	0.0	0.0	0.0	0.0	0.0	
11.0	0.0	0.0	0.0	0.0	0.006	
12.0	0.0	0.0	0.0	0.0	0.0	
13.0	0.0	0.0	0.0	0.0	-0.003	
14.0	0.0	0.0	0.0	0.0	-0.006	
15.0	0.0	0.0	0.0	0.0	0.006	
0.0	0.0	0.0	0.0	0.0	0.013	
1.0	0.0	0.0	0.0	0.0	-0.003	
2.0	0.0	0.0	0.0	0.0	-0.003	
3.0	0.0	0.0	0.0	0.0	-0.006	
4.0	0.0	0.0	0.0	0.0	-0.01	
5.0	0.0	0.0	0.0	0.0	-0.013	
6.0	0.0	0.0	0.0	0.0	-0.01	
7.0	0.0	0.0	0.0	0.0	-0.006	
8.0	0.0	0.0	0.0	0.0	-0.006	
9.0	0.0	0.0	0.0	0.0	0.003	
10.0	0.0	0.0	0.0	0.0	0.013	
11.0	0.0	0.0	0.0	0.0	0.019	
12.0	0.0	0.0	0.0	0.0	0.035	
13.0	0.0	0.0	0.0	0.0	0.042	
14.0	0.0	0.0	0.0	0.0	0.029	
15.0	0.0	0.0	0.0	0.0	0.01	
0.0	0.0	0.0	0.0	0.0	-0.003	
1.0	0.0	0.0	0.0	0.0	-0.003	
2.0	0.0	0.0	0.0	0.0	0.003	
3.0	0.0	0.0	0.0	0.0	-0.003	
4.0	0.0	0.0	0.0	0.0	-0.01	
5.0	0.0	0.0	0.0	0.0	-0.016	
6.0	0.0	0.0	0.0	0.0	-0.006	
7.0	0.0	0.0	0.0	0.0	0.003	
8.0	0.0	0.0	0.0	0.0	0.01	
9.0	0.0	0.0	0.0	0.0	0.026	
10.0	0.0	0.0	0.0	0.0	0.026	
11.0	0.0	0.0	0.0	0.0	0.013	
12.0	0.0	0.0	0.0	0.0	0.0	
13.0	0.0	0.0	0.0	0.0	-0.006	
14.0	0.0	0.0	0.0	0.0	-0.003	
15.0	0.0	0.0	0.0	0.0	0.0	
0.0	0.0	0.0	0.0	0.0	0.0	
1.0	0.0	0.0	0.0	0.0	0.0	
2.0	0.0	0.0	0.0	0.0	0.003	
3.0	0.0	0.0	0.0	0.0	0.022	
4.0	0.0	0.0	0.0	0.0	0.016	
5.0	0.0	0.0	0.0	0.0	0.003	
6.0	0.0	0.0	0.0	0.0	0.0	
7.0	0.0	0.0	0.0	0.0	-0.013	
8.0	0.0	0.0	0.0	0.0	-0.013	
9.0	0.0	0.0	0.0	0.0	-0.019	
10.0	0.0	0.0	0.0	0.0	-0.019	
11.0	0.0	0.0	0.0	0.0	-0.006	
12.0	0.0	0.0	0.0	0.0	-0.006	
13.0	0.0	0.0	0.0	0.0	-0.003	
14.0	0.0	0.0	0.0	0.0	0.013	
15.0	0.0	0.0	0.0	0.0	0.016	
0.0	0.0	0.0	0.0	0.0	0.006	
1.0	0.0	0.0	0.0	0.0	0.003	
2.0	0.0	0.0	0.0	0.0	0.01	
3.0	0.0	0.0	0.0	0.0	0.01	
4.0	0.0	0.0	0.0	0.0	0.013	
5.0	0.0	0.0	0.0	0.0	0.022	
6.0	0.0	0.0	0.0	0.0	0.01	
7.0	0.0	0.0	0.0	0.0	0.016	
8.0	0.0	0.0	0.0	0.0	0.006	
9.0	0.0	0.0	0.0	0.0	-0.003	
10.0	0.0	0.0	0.0	0.0	-0.01	
11.0	0.0	0.0	0.0	0.0	-0.006	
12.0	0.0	0.0	0.0	0.0	-0.006	
13.0	0.0	0.0	0.0	0.0	-0.013	
14.0	0.0	0.0	0.0	0.0	0.0	
15.0	0.0	0.0	0.0	0.0	0.003	
0.0	0.0	0.0	0.0	0.0	0.0	
1.0	0.0	0.0	0.0	0.0	0.01	
2.0	0.0	0.0	0.0	0.0	0.019	
3.0	0.0	0.0	0.0	0.0	0.026	
4.0	0.0	0.0	0.0	0.0	0.022	
5.0	0.0	0.0	0.0	0.0	0.029	
6.0	0.0	0.0	0.0	0.0	0.013	
7.0	0.0	0.0	0.0	0.0	0.022	
8.0	0.0	0.0	0.0	0.0	0.022	
9.0	0.0	0.0	0.0	0.0	0.013	
10.0	0.0	0.0	0.0	0.0	0.003	
11.0	0.0	0.0	0.0	0.0	-0.013	
12.0	0.0	0.0	0.0	0.0	0.003	
13.0	0.0	0.0	0.0	0.0	0.0	
14.0	0.0	0.0	0.0	0.0	0.006	
15.0	0.0	0.0	0.0	0.0	0.006	
0.0	0.0	0.0	0.0	0.0	0.006	
1.0	0.0	0.0	0.0	0.0	-0.006	
2.0	0.0	0.0	0.0	0.0	-0.013	
3.0	0.0	0.0	0.0	0.0	-0.013	
4.0	0.0	0.0	0.0	0.0	-0.013	
5.0	0.0	0.0	0.0	0.0	-0.006	
6.0	0.0	0.0	0.0	0.0	0.0	
7.0	0.0	0.0	0.0	0.0	-0.006	
8.0	0.0	0.0	0.0	0.0	0.003	
9.0	0.0	0.0	0.0	0.0	0.019	
10.0	0.0	0.0	0.0	0.0	0.029	
11.0	0.0	0.0	0.0	0.0	0.022	
12.0	0.0	0.0	0.0	0.0	0.022	
13.0	0.0	0.0	0.0	0.0	0.013	
14.0	0.0	0.0	0.0	0.0	0.006	
15.0	0.0	0.0	0.0	0.0	0.003	
0.0	0.0	0.0	0.0	0.0	0.016	
1.0	0.0	0.0	0.0	0.0	0.019	
2.0	0.0	0.0	0.0	0.0	0.026	
3.0	0.0	0.0	0.0	0.0	0.0	
4.0	0.0	0.0	0.0	0.0	-0.006	
5.0	0.0	0.0	0.0	0.0	-0.006	
6.0	0.0	0.0	0.0	0.0	-0.006	
7.0	0.0	0.0	0.0	0.0	-0.013	
8.0	0.0	0.0	0.0	0.0	-0.01	
9.0	0.0	0.0	0.0	0.0	0.0	
10.0	0.0	0.0	0.0	0.0	-0.013	
11.0	0.0	0.0	0.0	0.0	0.0	
12.0	0.0	0.0	0.0	0.0	0.006	
13.0	0.0	0.0	0.0	0.0	0.019	
14.0	0.0	0.0	0.0	0.0	0.013	
15.0	0.0	0.0	0.0	0.0	0.01	
0.0	0.0	0.0	0.0	0.0	-0.003	
1.0	0.0	0.0	0.0	0.0	0.0	
2.0	0.0	0.0	0.0	0.0	0.0	
3.0	0.0	0.0	0.0	0.0	0.019	
4.0	0.0	0.0	0.0	0.0	0.013	
5.0	0.0	0.0	0.0	0.0	0.013	
6.0	0.0	0.0	0.0	0.0	0.01	
7.0	0.0	0.0	0.0	0.0	0.003	
8.0	0.0	0.0	0.0	0.0	0.01	
9.0	0.0	0.0	0.0	0.0	0.003	
10.0	0.0	0.0	0.0	0.0	-0.006	
11.0	0.0	0.0	0.0	0.0	-0.013	
12.0	0.0	0.0	0.0	0.0	-0.003	
13.0	0.0	0.0	0.0	0.0	0.0	
14.0	0.0	0.0	0.0	0.0	0.0	
15.0	0.0	0.0	0.0	0.0	-0.006	
0.0	0.0	0.0	0.0	0.0	-0.003	
1.0	0.0	0.0	0.0	0.0	-0.003	
2.0	0.0	0.0	0.0	0.0	-0.01	
3.0	0.0	0.0	0.0	0.0	0.0	
4.0	0.0	0.0	0.0	0.0	0.01	
5.0	0.0	0.0	0.0	0.0	0.026	
6.0	0.0	0.0	0.0	0.0	0.026	
7.0	0.0	0.0	0.0	0.0	0.01	
8.0	0.0	0.0	0.0	0.0	0.0	
9.0	0.0	0.0	0.0	0.0	0.0	
10.0	0.0	0.0	0.0	0.0	0.0	
11.0	0.0	0.0	0.0	0.0	-0.01	
12.0	0.0	0.0	0.0	0.0	-0.003	
13.0	0.0	0.0	0.0	0.0	0.003	
14.0	0.0	0.0	0.0	0.0	0.0	
15.0	0.0	0.0	0.0	0.0	0.0	
0.0	0.0	0.0	0.0	0.0	0.003	
1.0	0.0	0.0	0.0	0.0	0.0	
2.0	0.0	0.0	0.0	0.0	0.003	
3.0	0.0	0.0	0.0	0.0	0.006	
4.0	0.0	0.0	0.0	0.0	0.019	
5.0	0.0	0.0	0.0	0.0	0.006	
6.0	0.0	0.0	0.0	0.0	0.013	
7.0	0.0	0.0	0.0	0.0	0.0	
8.0	0.0	0.0	0.0	0.0	-0.003	
9.0	0.0	0.0	0.0	0.0	-0.006	
10.0	0.0	0.0	0.0	0.0	-0.01	
11.0	0.0	0.0	0.0	0.0	0.0	
12.0	0.0	0.0	0.0	0.0	-0.003	
13.0	0.0	0.0	0.0	0.0	0.01	
14.0	0.0	0.0	0.0	0.0	0.022	
15.0	0.0	0.0	0.0	0.0	0.019	
0.0	0.0	0.0	0.0	0.0	0.022	
1.0	0.0	0.0	0.0	0.0	0.016	
2.0	0.0	0.0	0.0	0.0	0.026	
3.0	0.0	0.0	0.0	0.0	0.026	
4.0	0.0	0.0	0.0	0.0	0.026	
5.0	0.0	0.0	0.0	0.0	0.016	
6.0	0.0	0.0	0.0	0.0	-0.006	
7.0	0.0	0.0	0.0	0.0	-0.026	
8.0	0.0	0.0	0.0	0.0	-0.01	
9.0	0.0	0.0	0.0	0.0	0.0	
10.0	0.0	0.0	0.0	0.0	0.0	
11.0	0.0	0.0	0.0	0.0	0.0	
12.0	0.0	0.0	0.0	0.0	0.006	
13.0	0.0	0.0	0.0	0.0	0.006	
14.0	0.0	0.0	0.0	0.0	0.013	
15.0	0.0	0.0	0.0	0.0	-0.003	
0.0	0.0	0.0	0.0	0.0	-0.003	
1.0	0.0	0.0	0.0	0.0	-0.01	
2.0	0.0	0.0	0.0	0.0	-0.003	
3.0	0.0	0.0	0.0	0.0	0.0	
4.0	0.0	0.0	0.0	0.0	-0.013	
5.0	0.0	0.0	0.0	0.0	-0.016	
6.0	0.0	0.0	0.0	0.0	0.003	
7.0	0.0	0.0	0.0	0.0	0.003	
8.0	0.0	0.0	0.0	0.0	-0.003	
9.0	0.0	0.0	0.0	0.0	0.003	
10.0	0.0	0.0	0.0	0.0	0.01	
11.0	0.0	0.0	0.0	0.0	0.0	
12.0	0.0	0.0	0.0	0.0	0.003	
13.0	0.0	0.0	0.0	0.0	0.0	
14.0	0.0	0.0	0.0	0.0	0.0	
15.0	0.0	0.0	0.0	0.0	0.01	
0.0	0.0	0.0	0.0	0.0	0.013	
1.0	0.0	0.0	0.0	0.0	0.026	
2.0	0.0	0.0	0.0	0.0	0.019	
3.0	0.0	0.0	0.0	0.0	0.019	
4.0	0.0	0.0	0.0	0.0	0.019	
5.0	0.0	0.0	0.0	0.0	0.01	
6.0	0.0	0.0	0.0	0.0	0.01	
7.0	0.0	0.0	0.0	0.0	0.003	
8.0	0.0	0.0	0.0	0.0	-0.016	
9.0	0.0	0.0	0.0	0.0	-0.026	
10.0	0.0	0.0	0.0	0.0	-0.022	
11.0	0.0	0.0	0.0	0.0	-0.01	
12.0	0.0	0.0	0.0	0.0	-0.006	
13.0	0.0	0.0	0.0	0.0	-0.016	
14.0	0.0	0.0	0.0	0.0	0.0	
15.0	0.0	0.0	0.0	0.0	0.003	
0.0	0.0	0.0	0.0	0.0	0.006	
1.0	0.0	0.0	0.0	0.0	0.003	
2.0	0.0	0.0	0.0	0.0	0.01	
3.0	0.0	0.0	0.0	0.0	0.006	
4.0	0.0	0.0	0.0	0.0	0.006	
5.0	0.0	0.0	0.0	0.0	0.013	
6.0	0.0	0.0	0.0	0.0	0.019	
7.0	0.0	0.0	0.0	0.0	0.01	
8.0	0.0	0.0	0.0	0.0	-0.006	
9.0	0.0	0.0	0.0	0.0	0.003	
10.0	0.0	0.0	0.0	0.0	0.0	
11.0	0.0	0.0	0.0	0.0	0.013	
12.0	0.0	0.0	0.0	0.0	-0.003	
13.0	0.0	0.0	0.0	0.0	0.003	
14.0	0.0	0.0	0.0	0.0	-0.006	
15.0	0.0	0.0	0.0	0.0	-0.003	
0.0	0.0	0.0	0.0	0.0	-0.003	
1.0	0.0	0.0	0.0	0.0	0.006	
2.0	0.0	0.0	0.0	0.0	0.003	
3.0	0.0	0.0	0.0	0.0	0.01	
4.0	0.0	0.0	0.0	0.0	0.013	
5.0	0.0	0.0	0.0	0.0	0.006	
6.0	0.0	0.0	0.0	0.0	0.013	
7.0	0.0	0.0	0.0	0.0	0.013	
8.0	0.0	0.0	0.0	0.0	0.01	
